3.370000000000000000e+05
3.382857142857142608e+05
3.395714285714285797e+05
3.408571428571428405e+05
3.421428571428571595e+05
3.434285714285714203e+05
3.447142857142857392e+05
3.460000000000000000e+05
3.472857142857142608e+05
3.485714285714285797e+05
3.498571428571428405e+05
3.511428571428571595e+05
3.524285714285714203e+05
3.537142857142857392e+05
3.550000000000000000e+05
3.562857142857142608e+05
3.575714285714285797e+05
3.588571428571428405e+05
3.601428571428571595e+05
3.614285714285714203e+05
3.627142857142857392e+05
3.640000000000000000e+05
3.652857142857142608e+05
3.665714285714285797e+05
3.678571428571428405e+05
3.691428571428571595e+05
3.704285714285714203e+05
3.717142857142857392e+05
3.730000000000000000e+05
3.742857142857143190e+05
3.755714285714285797e+05
3.768571428571428405e+05
3.781428571428571595e+05
3.794285714285714203e+05
3.807142857142857392e+05
3.820000000000000000e+05
3.832857142857143190e+05
3.845714285714285797e+05
3.858571428571428405e+05
3.871428571428571595e+05
3.884285714285714203e+05
3.897142857142857392e+05
3.910000000000000000e+05
3.922857142857143190e+05
3.935714285714285797e+05
3.948571428571428405e+05
3.961428571428571595e+05
3.974285714285714203e+05
3.987142857142857392e+05
4.000000000000000000e+05
3.370000000000000000e+05
3.382857142857142608e+05
3.395714285714285797e+05
3.408571428571428405e+05
3.421428571428571595e+05
3.434285714285714203e+05
3.447142857142857392e+05
3.460000000000000000e+05
3.472857142857142608e+05
3.485714285714285797e+05
3.498571428571428405e+05
3.511428571428571595e+05
3.524285714285714203e+05
3.537142857142857392e+05
3.550000000000000000e+05
3.562857142857142608e+05
3.575714285714285797e+05
3.588571428571428405e+05
3.601428571428571595e+05
3.614285714285714203e+05
3.627142857142857392e+05
3.640000000000000000e+05
3.652857142857142608e+05
3.665714285714285797e+05
3.678571428571428405e+05
3.691428571428571595e+05
3.704285714285714203e+05
3.717142857142857392e+05
3.730000000000000000e+05
3.742857142857143190e+05
3.755714285714285797e+05
3.768571428571428405e+05
3.781428571428571595e+05
3.794285714285714203e+05
3.807142857142857392e+05
3.820000000000000000e+05
3.832857142857143190e+05
3.845714285714285797e+05
3.858571428571428405e+05
3.871428571428571595e+05
3.884285714285714203e+05
3.897142857142857392e+05
3.910000000000000000e+05
3.922857142857143190e+05
3.935714285714285797e+05
3.948571428571428405e+05
3.961428571428571595e+05
3.974285714285714203e+05
3.987142857142857392e+05
4.000000000000000000e+05
3.370000000000000000e+05
3.382857142857142608e+05
3.395714285714285797e+05
3.408571428571428405e+05
3.421428571428571595e+05
3.434285714285714203e+05
3.447142857142857392e+05
3.460000000000000000e+05
3.472857142857142608e+05
3.485714285714285797e+05
3.498571428571428405e+05
3.511428571428571595e+05
3.524285714285714203e+05
3.537142857142857392e+05
3.550000000000000000e+05
3.562857142857142608e+05
3.575714285714285797e+05
3.588571428571428405e+05
3.601428571428571595e+05
3.614285714285714203e+05
3.627142857142857392e+05
3.640000000000000000e+05
3.652857142857142608e+05
3.665714285714285797e+05
3.678571428571428405e+05
3.691428571428571595e+05
3.704285714285714203e+05
3.717142857142857392e+05
3.730000000000000000e+05
3.742857142857143190e+05
3.755714285714285797e+05
3.768571428571428405e+05
3.781428571428571595e+05
3.794285714285714203e+05
3.807142857142857392e+05
3.820000000000000000e+05
3.832857142857143190e+05
3.845714285714285797e+05
3.858571428571428405e+05
3.871428571428571595e+05
3.884285714285714203e+05
3.897142857142857392e+05
3.910000000000000000e+05
3.922857142857143190e+05
3.935714285714285797e+05
3.948571428571428405e+05
3.961428571428571595e+05
3.974285714285714203e+05
3.987142857142857392e+05
4.000000000000000000e+05
3.370000000000000000e+05
3.382857142857142608e+05
3.395714285714285797e+05
3.408571428571428405e+05
3.421428571428571595e+05
3.434285714285714203e+05
3.447142857142857392e+05
3.460000000000000000e+05
3.472857142857142608e+05
3.485714285714285797e+05
3.498571428571428405e+05
3.511428571428571595e+05
3.524285714285714203e+05
3.537142857142857392e+05
3.550000000000000000e+05
3.562857142857142608e+05
3.575714285714285797e+05
3.588571428571428405e+05
3.601428571428571595e+05
3.614285714285714203e+05
3.627142857142857392e+05
3.640000000000000000e+05
3.652857142857142608e+05
3.665714285714285797e+05
3.678571428571428405e+05
3.691428571428571595e+05
3.704285714285714203e+05
3.717142857142857392e+05
3.730000000000000000e+05
3.742857142857143190e+05
3.755714285714285797e+05
3.768571428571428405e+05
3.781428571428571595e+05
3.794285714285714203e+05
3.807142857142857392e+05
3.820000000000000000e+05
3.832857142857143190e+05
3.845714285714285797e+05
3.858571428571428405e+05
3.871428571428571595e+05
3.884285714285714203e+05
3.897142857142857392e+05
3.910000000000000000e+05
3.922857142857143190e+05
3.935714285714285797e+05
3.948571428571428405e+05
3.961428571428571595e+05
3.974285714285714203e+05
3.987142857142857392e+05
4.000000000000000000e+05
3.370000000000000000e+05
3.382857142857142608e+05
3.395714285714285797e+05
3.408571428571428405e+05
3.421428571428571595e+05
3.434285714285714203e+05
3.447142857142857392e+05
3.460000000000000000e+05
3.472857142857142608e+05
3.485714285714285797e+05
3.498571428571428405e+05
3.511428571428571595e+05
3.524285714285714203e+05
3.537142857142857392e+05
3.550000000000000000e+05
3.562857142857142608e+05
3.575714285714285797e+05
3.588571428571428405e+05
3.601428571428571595e+05
3.614285714285714203e+05
3.627142857142857392e+05
3.640000000000000000e+05
3.652857142857142608e+05
3.665714285714285797e+05
3.678571428571428405e+05
3.691428571428571595e+05
3.704285714285714203e+05
3.717142857142857392e+05
3.730000000000000000e+05
3.742857142857143190e+05
3.755714285714285797e+05
3.768571428571428405e+05
3.781428571428571595e+05
3.794285714285714203e+05
3.807142857142857392e+05
3.820000000000000000e+05
3.832857142857143190e+05
3.845714285714285797e+05
3.858571428571428405e+05
3.871428571428571595e+05
3.884285714285714203e+05
3.897142857142857392e+05
3.910000000000000000e+05
3.922857142857143190e+05
3.935714285714285797e+05
3.948571428571428405e+05
3.961428571428571595e+05
3.974285714285714203e+05
3.987142857142857392e+05
4.000000000000000000e+05
3.370000000000000000e+05
3.382857142857142608e+05
3.395714285714285797e+05
3.408571428571428405e+05
3.421428571428571595e+05
3.434285714285714203e+05
3.447142857142857392e+05
3.460000000000000000e+05
3.472857142857142608e+05
3.485714285714285797e+05
3.498571428571428405e+05
3.511428571428571595e+05
3.524285714285714203e+05
3.537142857142857392e+05
3.550000000000000000e+05
3.562857142857142608e+05
3.575714285714285797e+05
3.588571428571428405e+05
3.601428571428571595e+05
3.614285714285714203e+05
3.627142857142857392e+05
3.640000000000000000e+05
3.652857142857142608e+05
3.665714285714285797e+05
3.678571428571428405e+05
3.691428571428571595e+05
3.704285714285714203e+05
3.717142857142857392e+05
3.730000000000000000e+05
3.742857142857143190e+05
3.755714285714285797e+05
3.768571428571428405e+05
3.781428571428571595e+05
3.794285714285714203e+05
3.807142857142857392e+05
3.820000000000000000e+05
3.832857142857143190e+05
3.845714285714285797e+05
3.858571428571428405e+05
3.871428571428571595e+05
3.884285714285714203e+05
3.897142857142857392e+05
3.910000000000000000e+05
3.922857142857143190e+05
3.935714285714285797e+05
3.948571428571428405e+05
3.961428571428571595e+05
3.974285714285714203e+05
3.987142857142857392e+05
4.000000000000000000e+05
3.370000000000000000e+05
3.382857142857142608e+05
3.395714285714285797e+05
3.408571428571428405e+05
3.421428571428571595e+05
3.434285714285714203e+05
3.447142857142857392e+05
3.460000000000000000e+05
3.472857142857142608e+05
3.485714285714285797e+05
3.498571428571428405e+05
3.511428571428571595e+05
3.524285714285714203e+05
3.537142857142857392e+05
3.550000000000000000e+05
3.562857142857142608e+05
3.575714285714285797e+05
3.588571428571428405e+05
3.601428571428571595e+05
3.614285714285714203e+05
3.627142857142857392e+05
3.640000000000000000e+05
3.652857142857142608e+05
3.665714285714285797e+05
3.678571428571428405e+05
3.691428571428571595e+05
3.704285714285714203e+05
3.717142857142857392e+05
3.730000000000000000e+05
3.742857142857143190e+05
3.755714285714285797e+05
3.768571428571428405e+05
3.781428571428571595e+05
3.794285714285714203e+05
3.807142857142857392e+05
3.820000000000000000e+05
3.832857142857143190e+05
3.845714285714285797e+05
3.858571428571428405e+05
3.871428571428571595e+05
3.884285714285714203e+05
3.897142857142857392e+05
3.910000000000000000e+05
3.922857142857143190e+05
3.935714285714285797e+05
3.948571428571428405e+05
3.961428571428571595e+05
3.974285714285714203e+05
3.987142857142857392e+05
4.000000000000000000e+05
3.370000000000000000e+05
3.382857142857142608e+05
3.395714285714285797e+05
3.408571428571428405e+05
3.421428571428571595e+05
3.434285714285714203e+05
3.447142857142857392e+05
3.460000000000000000e+05
3.472857142857142608e+05
3.485714285714285797e+05
3.498571428571428405e+05
3.511428571428571595e+05
3.524285714285714203e+05
3.537142857142857392e+05
3.550000000000000000e+05
3.562857142857142608e+05
3.575714285714285797e+05
3.588571428571428405e+05
3.601428571428571595e+05
3.614285714285714203e+05
3.627142857142857392e+05
3.640000000000000000e+05
3.652857142857142608e+05
3.665714285714285797e+05
3.678571428571428405e+05
3.691428571428571595e+05
3.704285714285714203e+05
3.717142857142857392e+05
3.730000000000000000e+05
3.742857142857143190e+05
3.755714285714285797e+05
3.768571428571428405e+05
3.781428571428571595e+05
3.794285714285714203e+05
3.807142857142857392e+05
3.820000000000000000e+05
3.832857142857143190e+05
3.845714285714285797e+05
3.858571428571428405e+05
3.871428571428571595e+05
3.884285714285714203e+05
3.897142857142857392e+05
3.910000000000000000e+05
3.922857142857143190e+05
3.935714285714285797e+05
3.948571428571428405e+05
3.961428571428571595e+05
3.974285714285714203e+05
3.987142857142857392e+05
4.000000000000000000e+05
3.370000000000000000e+05
3.382857142857142608e+05
3.395714285714285797e+05
3.408571428571428405e+05
3.421428571428571595e+05
3.434285714285714203e+05
3.447142857142857392e+05
3.460000000000000000e+05
3.472857142857142608e+05
3.485714285714285797e+05
3.498571428571428405e+05
3.511428571428571595e+05
3.524285714285714203e+05
3.537142857142857392e+05
3.550000000000000000e+05
3.562857142857142608e+05
3.575714285714285797e+05
3.588571428571428405e+05
3.601428571428571595e+05
3.614285714285714203e+05
3.627142857142857392e+05
3.640000000000000000e+05
3.652857142857142608e+05
3.665714285714285797e+05
3.678571428571428405e+05
3.691428571428571595e+05
3.704285714285714203e+05
3.717142857142857392e+05
3.730000000000000000e+05
3.742857142857143190e+05
3.755714285714285797e+05
3.768571428571428405e+05
3.781428571428571595e+05
3.794285714285714203e+05
3.807142857142857392e+05
3.820000000000000000e+05
3.832857142857143190e+05
3.845714285714285797e+05
3.858571428571428405e+05
3.871428571428571595e+05
3.884285714285714203e+05
3.897142857142857392e+05
3.910000000000000000e+05
3.922857142857143190e+05
3.935714285714285797e+05
3.948571428571428405e+05
3.961428571428571595e+05
3.974285714285714203e+05
3.987142857142857392e+05
4.000000000000000000e+05
3.370000000000000000e+05
3.382857142857142608e+05
3.395714285714285797e+05
3.408571428571428405e+05
3.421428571428571595e+05
3.434285714285714203e+05
3.447142857142857392e+05
3.460000000000000000e+05
3.472857142857142608e+05
3.485714285714285797e+05
3.498571428571428405e+05
3.511428571428571595e+05
3.524285714285714203e+05
3.537142857142857392e+05
3.550000000000000000e+05
3.562857142857142608e+05
3.575714285714285797e+05
3.588571428571428405e+05
3.601428571428571595e+05
3.614285714285714203e+05
3.627142857142857392e+05
3.640000000000000000e+05
3.652857142857142608e+05
3.665714285714285797e+05
3.678571428571428405e+05
3.691428571428571595e+05
3.704285714285714203e+05
3.717142857142857392e+05
3.730000000000000000e+05
3.742857142857143190e+05
3.755714285714285797e+05
3.768571428571428405e+05
3.781428571428571595e+05
3.794285714285714203e+05
3.807142857142857392e+05
3.820000000000000000e+05
3.832857142857143190e+05
3.845714285714285797e+05
3.858571428571428405e+05
3.871428571428571595e+05
3.884285714285714203e+05
3.897142857142857392e+05
3.910000000000000000e+05
3.922857142857143190e+05
3.935714285714285797e+05
3.948571428571428405e+05
3.961428571428571595e+05
3.974285714285714203e+05
3.987142857142857392e+05
4.000000000000000000e+05
3.370000000000000000e+05
3.382857142857142608e+05
3.395714285714285797e+05
3.408571428571428405e+05
3.421428571428571595e+05
3.434285714285714203e+05
3.447142857142857392e+05
3.460000000000000000e+05
3.472857142857142608e+05
3.485714285714285797e+05
3.498571428571428405e+05
3.511428571428571595e+05
3.524285714285714203e+05
3.537142857142857392e+05
3.550000000000000000e+05
3.562857142857142608e+05
3.575714285714285797e+05
3.588571428571428405e+05
3.601428571428571595e+05
3.614285714285714203e+05
3.627142857142857392e+05
3.640000000000000000e+05
3.652857142857142608e+05
3.665714285714285797e+05
3.678571428571428405e+05
3.691428571428571595e+05
3.704285714285714203e+05
3.717142857142857392e+05
3.730000000000000000e+05
3.742857142857143190e+05
3.755714285714285797e+05
3.768571428571428405e+05
3.781428571428571595e+05
3.794285714285714203e+05
3.807142857142857392e+05
3.820000000000000000e+05
3.832857142857143190e+05
3.845714285714285797e+05
3.858571428571428405e+05
3.871428571428571595e+05
3.884285714285714203e+05
3.897142857142857392e+05
3.910000000000000000e+05
3.922857142857143190e+05
3.935714285714285797e+05
3.948571428571428405e+05
3.961428571428571595e+05
3.974285714285714203e+05
3.987142857142857392e+05
4.000000000000000000e+05
3.370000000000000000e+05
3.382857142857142608e+05
3.395714285714285797e+05
3.408571428571428405e+05
3.421428571428571595e+05
3.434285714285714203e+05
3.447142857142857392e+05
3.460000000000000000e+05
3.472857142857142608e+05
3.485714285714285797e+05
3.498571428571428405e+05
3.511428571428571595e+05
3.524285714285714203e+05
3.537142857142857392e+05
3.550000000000000000e+05
3.562857142857142608e+05
3.575714285714285797e+05
3.588571428571428405e+05
3.601428571428571595e+05
3.614285714285714203e+05
3.627142857142857392e+05
3.640000000000000000e+05
3.652857142857142608e+05
3.665714285714285797e+05
3.678571428571428405e+05
3.691428571428571595e+05
3.704285714285714203e+05
3.717142857142857392e+05
3.730000000000000000e+05
3.742857142857143190e+05
3.755714285714285797e+05
3.768571428571428405e+05
3.781428571428571595e+05
3.794285714285714203e+05
3.807142857142857392e+05
3.820000000000000000e+05
3.832857142857143190e+05
3.845714285714285797e+05
3.858571428571428405e+05
3.871428571428571595e+05
3.884285714285714203e+05
3.897142857142857392e+05
3.910000000000000000e+05
3.922857142857143190e+05
3.935714285714285797e+05
3.948571428571428405e+05
3.961428571428571595e+05
3.974285714285714203e+05
3.987142857142857392e+05
4.000000000000000000e+05
3.370000000000000000e+05
3.382857142857142608e+05
3.395714285714285797e+05
3.408571428571428405e+05
3.421428571428571595e+05
3.434285714285714203e+05
3.447142857142857392e+05
3.460000000000000000e+05
3.472857142857142608e+05
3.485714285714285797e+05
3.498571428571428405e+05
3.511428571428571595e+05
3.524285714285714203e+05
3.537142857142857392e+05
3.550000000000000000e+05
3.562857142857142608e+05
3.575714285714285797e+05
3.588571428571428405e+05
3.601428571428571595e+05
3.614285714285714203e+05
3.627142857142857392e+05
3.640000000000000000e+05
3.652857142857142608e+05
3.665714285714285797e+05
3.678571428571428405e+05
3.691428571428571595e+05
3.704285714285714203e+05
3.717142857142857392e+05
3.730000000000000000e+05
3.742857142857143190e+05
3.755714285714285797e+05
3.768571428571428405e+05
3.781428571428571595e+05
3.794285714285714203e+05
3.807142857142857392e+05
3.820000000000000000e+05
3.832857142857143190e+05
3.845714285714285797e+05
3.858571428571428405e+05
3.871428571428571595e+05
3.884285714285714203e+05
3.897142857142857392e+05
3.910000000000000000e+05
3.922857142857143190e+05
3.935714285714285797e+05
3.948571428571428405e+05
3.961428571428571595e+05
3.974285714285714203e+05
3.987142857142857392e+05
4.000000000000000000e+05
3.370000000000000000e+05
3.382857142857142608e+05
3.395714285714285797e+05
3.408571428571428405e+05
3.421428571428571595e+05
3.434285714285714203e+05
3.447142857142857392e+05
3.460000000000000000e+05
3.472857142857142608e+05
3.485714285714285797e+05
3.498571428571428405e+05
3.511428571428571595e+05
3.524285714285714203e+05
3.537142857142857392e+05
3.550000000000000000e+05
3.562857142857142608e+05
3.575714285714285797e+05
3.588571428571428405e+05
3.601428571428571595e+05
3.614285714285714203e+05
3.627142857142857392e+05
3.640000000000000000e+05
3.652857142857142608e+05
3.665714285714285797e+05
3.678571428571428405e+05
3.691428571428571595e+05
3.704285714285714203e+05
3.717142857142857392e+05
3.730000000000000000e+05
3.742857142857143190e+05
3.755714285714285797e+05
3.768571428571428405e+05
3.781428571428571595e+05
3.794285714285714203e+05
3.807142857142857392e+05
3.820000000000000000e+05
3.832857142857143190e+05
3.845714285714285797e+05
3.858571428571428405e+05
3.871428571428571595e+05
3.884285714285714203e+05
3.897142857142857392e+05
3.910000000000000000e+05
3.922857142857143190e+05
3.935714285714285797e+05
3.948571428571428405e+05
3.961428571428571595e+05
3.974285714285714203e+05
3.987142857142857392e+05
4.000000000000000000e+05
3.370000000000000000e+05
3.382857142857142608e+05
3.395714285714285797e+05
3.408571428571428405e+05
3.421428571428571595e+05
3.434285714285714203e+05
3.447142857142857392e+05
3.460000000000000000e+05
3.472857142857142608e+05
3.485714285714285797e+05
3.498571428571428405e+05
3.511428571428571595e+05
3.524285714285714203e+05
3.537142857142857392e+05
3.550000000000000000e+05
3.562857142857142608e+05
3.575714285714285797e+05
3.588571428571428405e+05
3.601428571428571595e+05
3.614285714285714203e+05
3.627142857142857392e+05
3.640000000000000000e+05
3.652857142857142608e+05
3.665714285714285797e+05
3.678571428571428405e+05
3.691428571428571595e+05
3.704285714285714203e+05
3.717142857142857392e+05
3.730000000000000000e+05
3.742857142857143190e+05
3.755714285714285797e+05
3.768571428571428405e+05
3.781428571428571595e+05
3.794285714285714203e+05
3.807142857142857392e+05
3.820000000000000000e+05
3.832857142857143190e+05
3.845714285714285797e+05
3.858571428571428405e+05
3.871428571428571595e+05
3.884285714285714203e+05
3.897142857142857392e+05
3.910000000000000000e+05
3.922857142857143190e+05
3.935714285714285797e+05
3.948571428571428405e+05
3.961428571428571595e+05
3.974285714285714203e+05
3.987142857142857392e+05
4.000000000000000000e+05
3.370000000000000000e+05
3.382857142857142608e+05
3.395714285714285797e+05
3.408571428571428405e+05
3.421428571428571595e+05
3.434285714285714203e+05
3.447142857142857392e+05
3.460000000000000000e+05
3.472857142857142608e+05
3.485714285714285797e+05
3.498571428571428405e+05
3.511428571428571595e+05
3.524285714285714203e+05
3.537142857142857392e+05
3.550000000000000000e+05
3.562857142857142608e+05
3.575714285714285797e+05
3.588571428571428405e+05
3.601428571428571595e+05
3.614285714285714203e+05
3.627142857142857392e+05
3.640000000000000000e+05
3.652857142857142608e+05
3.665714285714285797e+05
3.678571428571428405e+05
3.691428571428571595e+05
3.704285714285714203e+05
3.717142857142857392e+05
3.730000000000000000e+05
3.742857142857143190e+05
3.755714285714285797e+05
3.768571428571428405e+05
3.781428571428571595e+05
3.794285714285714203e+05
3.807142857142857392e+05
3.820000000000000000e+05
3.832857142857143190e+05
3.845714285714285797e+05
3.858571428571428405e+05
3.871428571428571595e+05
3.884285714285714203e+05
3.897142857142857392e+05
3.910000000000000000e+05
3.922857142857143190e+05
3.935714285714285797e+05
3.948571428571428405e+05
3.961428571428571595e+05
3.974285714285714203e+05
3.987142857142857392e+05
4.000000000000000000e+05
3.370000000000000000e+05
3.382857142857142608e+05
3.395714285714285797e+05
3.408571428571428405e+05
3.421428571428571595e+05
3.434285714285714203e+05
3.447142857142857392e+05
3.460000000000000000e+05
3.472857142857142608e+05
3.485714285714285797e+05
3.498571428571428405e+05
3.511428571428571595e+05
3.524285714285714203e+05
3.537142857142857392e+05
3.550000000000000000e+05
3.562857142857142608e+05
3.575714285714285797e+05
3.588571428571428405e+05
3.601428571428571595e+05
3.614285714285714203e+05
3.627142857142857392e+05
3.640000000000000000e+05
3.652857142857142608e+05
3.665714285714285797e+05
3.678571428571428405e+05
3.691428571428571595e+05
3.704285714285714203e+05
3.717142857142857392e+05
3.730000000000000000e+05
3.742857142857143190e+05
3.755714285714285797e+05
3.768571428571428405e+05
3.781428571428571595e+05
3.794285714285714203e+05
3.807142857142857392e+05
3.820000000000000000e+05
3.832857142857143190e+05
3.845714285714285797e+05
3.858571428571428405e+05
3.871428571428571595e+05
3.884285714285714203e+05
3.897142857142857392e+05
3.910000000000000000e+05
3.922857142857143190e+05
3.935714285714285797e+05
3.948571428571428405e+05
3.961428571428571595e+05
3.974285714285714203e+05
3.987142857142857392e+05
4.000000000000000000e+05
3.370000000000000000e+05
3.382857142857142608e+05
3.395714285714285797e+05
3.408571428571428405e+05
3.421428571428571595e+05
3.434285714285714203e+05
3.447142857142857392e+05
3.460000000000000000e+05
3.472857142857142608e+05
3.485714285714285797e+05
3.498571428571428405e+05
3.511428571428571595e+05
3.524285714285714203e+05
3.537142857142857392e+05
3.550000000000000000e+05
3.562857142857142608e+05
3.575714285714285797e+05
3.588571428571428405e+05
3.601428571428571595e+05
3.614285714285714203e+05
3.627142857142857392e+05
3.640000000000000000e+05
3.652857142857142608e+05
3.665714285714285797e+05
3.678571428571428405e+05
3.691428571428571595e+05
3.704285714285714203e+05
3.717142857142857392e+05
3.730000000000000000e+05
3.742857142857143190e+05
3.755714285714285797e+05
3.768571428571428405e+05
3.781428571428571595e+05
3.794285714285714203e+05
3.807142857142857392e+05
3.820000000000000000e+05
3.832857142857143190e+05
3.845714285714285797e+05
3.858571428571428405e+05
3.871428571428571595e+05
3.884285714285714203e+05
3.897142857142857392e+05
3.910000000000000000e+05
3.922857142857143190e+05
3.935714285714285797e+05
3.948571428571428405e+05
3.961428571428571595e+05
3.974285714285714203e+05
3.987142857142857392e+05
4.000000000000000000e+05
3.370000000000000000e+05
3.382857142857142608e+05
3.395714285714285797e+05
3.408571428571428405e+05
3.421428571428571595e+05
3.434285714285714203e+05
3.447142857142857392e+05
3.460000000000000000e+05
3.472857142857142608e+05
3.485714285714285797e+05
3.498571428571428405e+05
3.511428571428571595e+05
3.524285714285714203e+05
3.537142857142857392e+05
3.550000000000000000e+05
3.562857142857142608e+05
3.575714285714285797e+05
3.588571428571428405e+05
3.601428571428571595e+05
3.614285714285714203e+05
3.627142857142857392e+05
3.640000000000000000e+05
3.652857142857142608e+05
3.665714285714285797e+05
3.678571428571428405e+05
3.691428571428571595e+05
3.704285714285714203e+05
3.717142857142857392e+05
3.730000000000000000e+05
3.742857142857143190e+05
3.755714285714285797e+05
3.768571428571428405e+05
3.781428571428571595e+05
3.794285714285714203e+05
3.807142857142857392e+05
3.820000000000000000e+05
3.832857142857143190e+05
3.845714285714285797e+05
3.858571428571428405e+05
3.871428571428571595e+05
3.884285714285714203e+05
3.897142857142857392e+05
3.910000000000000000e+05
3.922857142857143190e+05
3.935714285714285797e+05
3.948571428571428405e+05
3.961428571428571595e+05
3.974285714285714203e+05
3.987142857142857392e+05
4.000000000000000000e+05
3.370000000000000000e+05
3.382857142857142608e+05
3.395714285714285797e+05
3.408571428571428405e+05
3.421428571428571595e+05
3.434285714285714203e+05
3.447142857142857392e+05
3.460000000000000000e+05
3.472857142857142608e+05
3.485714285714285797e+05
3.498571428571428405e+05
3.511428571428571595e+05
3.524285714285714203e+05
3.537142857142857392e+05
3.550000000000000000e+05
3.562857142857142608e+05
3.575714285714285797e+05
3.588571428571428405e+05
3.601428571428571595e+05
3.614285714285714203e+05
3.627142857142857392e+05
3.640000000000000000e+05
3.652857142857142608e+05
3.665714285714285797e+05
3.678571428571428405e+05
3.691428571428571595e+05
3.704285714285714203e+05
3.717142857142857392e+05
3.730000000000000000e+05
3.742857142857143190e+05
3.755714285714285797e+05
3.768571428571428405e+05
3.781428571428571595e+05
3.794285714285714203e+05
3.807142857142857392e+05
3.820000000000000000e+05
3.832857142857143190e+05
3.845714285714285797e+05
3.858571428571428405e+05
3.871428571428571595e+05
3.884285714285714203e+05
3.897142857142857392e+05
3.910000000000000000e+05
3.922857142857143190e+05
3.935714285714285797e+05
3.948571428571428405e+05
3.961428571428571595e+05
3.974285714285714203e+05
3.987142857142857392e+05
4.000000000000000000e+05
3.370000000000000000e+05
3.382857142857142608e+05
3.395714285714285797e+05
3.408571428571428405e+05
3.421428571428571595e+05
3.434285714285714203e+05
3.447142857142857392e+05
3.460000000000000000e+05
3.472857142857142608e+05
3.485714285714285797e+05
3.498571428571428405e+05
3.511428571428571595e+05
3.524285714285714203e+05
3.537142857142857392e+05
3.550000000000000000e+05
3.562857142857142608e+05
3.575714285714285797e+05
3.588571428571428405e+05
3.601428571428571595e+05
3.614285714285714203e+05
3.627142857142857392e+05
3.640000000000000000e+05
3.652857142857142608e+05
3.665714285714285797e+05
3.678571428571428405e+05
3.691428571428571595e+05
3.704285714285714203e+05
3.717142857142857392e+05
3.730000000000000000e+05
3.742857142857143190e+05
3.755714285714285797e+05
3.768571428571428405e+05
3.781428571428571595e+05
3.794285714285714203e+05
3.807142857142857392e+05
3.820000000000000000e+05
3.832857142857143190e+05
3.845714285714285797e+05
3.858571428571428405e+05
3.871428571428571595e+05
3.884285714285714203e+05
3.897142857142857392e+05
3.910000000000000000e+05
3.922857142857143190e+05
3.935714285714285797e+05
3.948571428571428405e+05
3.961428571428571595e+05
3.974285714285714203e+05
3.987142857142857392e+05
4.000000000000000000e+05
3.370000000000000000e+05
3.382857142857142608e+05
3.395714285714285797e+05
3.408571428571428405e+05
3.421428571428571595e+05
3.434285714285714203e+05
3.447142857142857392e+05
3.460000000000000000e+05
3.472857142857142608e+05
3.485714285714285797e+05
3.498571428571428405e+05
3.511428571428571595e+05
3.524285714285714203e+05
3.537142857142857392e+05
3.550000000000000000e+05
3.562857142857142608e+05
3.575714285714285797e+05
3.588571428571428405e+05
3.601428571428571595e+05
3.614285714285714203e+05
3.627142857142857392e+05
3.640000000000000000e+05
3.652857142857142608e+05
3.665714285714285797e+05
3.678571428571428405e+05
3.691428571428571595e+05
3.704285714285714203e+05
3.717142857142857392e+05
3.730000000000000000e+05
3.742857142857143190e+05
3.755714285714285797e+05
3.768571428571428405e+05
3.781428571428571595e+05
3.794285714285714203e+05
3.807142857142857392e+05
3.820000000000000000e+05
3.832857142857143190e+05
3.845714285714285797e+05
3.858571428571428405e+05
3.871428571428571595e+05
3.884285714285714203e+05
3.897142857142857392e+05
3.910000000000000000e+05
3.922857142857143190e+05
3.935714285714285797e+05
3.948571428571428405e+05
3.961428571428571595e+05
3.974285714285714203e+05
3.987142857142857392e+05
4.000000000000000000e+05
3.370000000000000000e+05
3.382857142857142608e+05
3.395714285714285797e+05
3.408571428571428405e+05
3.421428571428571595e+05
3.434285714285714203e+05
3.447142857142857392e+05
3.460000000000000000e+05
3.472857142857142608e+05
3.485714285714285797e+05
3.498571428571428405e+05
3.511428571428571595e+05
3.524285714285714203e+05
3.537142857142857392e+05
3.550000000000000000e+05
3.562857142857142608e+05
3.575714285714285797e+05
3.588571428571428405e+05
3.601428571428571595e+05
3.614285714285714203e+05
3.627142857142857392e+05
3.640000000000000000e+05
3.652857142857142608e+05
3.665714285714285797e+05
3.678571428571428405e+05
3.691428571428571595e+05
3.704285714285714203e+05
3.717142857142857392e+05
3.730000000000000000e+05
3.742857142857143190e+05
3.755714285714285797e+05
3.768571428571428405e+05
3.781428571428571595e+05
3.794285714285714203e+05
3.807142857142857392e+05
3.820000000000000000e+05
3.832857142857143190e+05
3.845714285714285797e+05
3.858571428571428405e+05
3.871428571428571595e+05
3.884285714285714203e+05
3.897142857142857392e+05
3.910000000000000000e+05
3.922857142857143190e+05
3.935714285714285797e+05
3.948571428571428405e+05
3.961428571428571595e+05
3.974285714285714203e+05
3.987142857142857392e+05
4.000000000000000000e+05
3.370000000000000000e+05
3.382857142857142608e+05
3.395714285714285797e+05
3.408571428571428405e+05
3.421428571428571595e+05
3.434285714285714203e+05
3.447142857142857392e+05
3.460000000000000000e+05
3.472857142857142608e+05
3.485714285714285797e+05
3.498571428571428405e+05
3.511428571428571595e+05
3.524285714285714203e+05
3.537142857142857392e+05
3.550000000000000000e+05
3.562857142857142608e+05
3.575714285714285797e+05
3.588571428571428405e+05
3.601428571428571595e+05
3.614285714285714203e+05
3.627142857142857392e+05
3.640000000000000000e+05
3.652857142857142608e+05
3.665714285714285797e+05
3.678571428571428405e+05
3.691428571428571595e+05
3.704285714285714203e+05
3.717142857142857392e+05
3.730000000000000000e+05
3.742857142857143190e+05
3.755714285714285797e+05
3.768571428571428405e+05
3.781428571428571595e+05
3.794285714285714203e+05
3.807142857142857392e+05
3.820000000000000000e+05
3.832857142857143190e+05
3.845714285714285797e+05
3.858571428571428405e+05
3.871428571428571595e+05
3.884285714285714203e+05
3.897142857142857392e+05
3.910000000000000000e+05
3.922857142857143190e+05
3.935714285714285797e+05
3.948571428571428405e+05
3.961428571428571595e+05
3.974285714285714203e+05
3.987142857142857392e+05
4.000000000000000000e+05
3.370000000000000000e+05
3.382857142857142608e+05
3.395714285714285797e+05
3.408571428571428405e+05
3.421428571428571595e+05
3.434285714285714203e+05
3.447142857142857392e+05
3.460000000000000000e+05
3.472857142857142608e+05
3.485714285714285797e+05
3.498571428571428405e+05
3.511428571428571595e+05
3.524285714285714203e+05
3.537142857142857392e+05
3.550000000000000000e+05
3.562857142857142608e+05
3.575714285714285797e+05
3.588571428571428405e+05
3.601428571428571595e+05
3.614285714285714203e+05
3.627142857142857392e+05
3.640000000000000000e+05
3.652857142857142608e+05
3.665714285714285797e+05
3.678571428571428405e+05
3.691428571428571595e+05
3.704285714285714203e+05
3.717142857142857392e+05
3.730000000000000000e+05
3.742857142857143190e+05
3.755714285714285797e+05
3.768571428571428405e+05
3.781428571428571595e+05
3.794285714285714203e+05
3.807142857142857392e+05
3.820000000000000000e+05
3.832857142857143190e+05
3.845714285714285797e+05
3.858571428571428405e+05
3.871428571428571595e+05
3.884285714285714203e+05
3.897142857142857392e+05
3.910000000000000000e+05
3.922857142857143190e+05
3.935714285714285797e+05
3.948571428571428405e+05
3.961428571428571595e+05
3.974285714285714203e+05
3.987142857142857392e+05
4.000000000000000000e+05
3.370000000000000000e+05
3.382857142857142608e+05
3.395714285714285797e+05
3.408571428571428405e+05
3.421428571428571595e+05
3.434285714285714203e+05
3.447142857142857392e+05
3.460000000000000000e+05
3.472857142857142608e+05
3.485714285714285797e+05
3.498571428571428405e+05
3.511428571428571595e+05
3.524285714285714203e+05
3.537142857142857392e+05
3.550000000000000000e+05
3.562857142857142608e+05
3.575714285714285797e+05
3.588571428571428405e+05
3.601428571428571595e+05
3.614285714285714203e+05
3.627142857142857392e+05
3.640000000000000000e+05
3.652857142857142608e+05
3.665714285714285797e+05
3.678571428571428405e+05
3.691428571428571595e+05
3.704285714285714203e+05
3.717142857142857392e+05
3.730000000000000000e+05
3.742857142857143190e+05
3.755714285714285797e+05
3.768571428571428405e+05
3.781428571428571595e+05
3.794285714285714203e+05
3.807142857142857392e+05
3.820000000000000000e+05
3.832857142857143190e+05
3.845714285714285797e+05
3.858571428571428405e+05
3.871428571428571595e+05
3.884285714285714203e+05
3.897142857142857392e+05
3.910000000000000000e+05
3.922857142857143190e+05
3.935714285714285797e+05
3.948571428571428405e+05
3.961428571428571595e+05
3.974285714285714203e+05
3.987142857142857392e+05
4.000000000000000000e+05
3.370000000000000000e+05
3.382857142857142608e+05
3.395714285714285797e+05
3.408571428571428405e+05
3.421428571428571595e+05
3.434285714285714203e+05
3.447142857142857392e+05
3.460000000000000000e+05
3.472857142857142608e+05
3.485714285714285797e+05
3.498571428571428405e+05
3.511428571428571595e+05
3.524285714285714203e+05
3.537142857142857392e+05
3.550000000000000000e+05
3.562857142857142608e+05
3.575714285714285797e+05
3.588571428571428405e+05
3.601428571428571595e+05
3.614285714285714203e+05
3.627142857142857392e+05
3.640000000000000000e+05
3.652857142857142608e+05
3.665714285714285797e+05
3.678571428571428405e+05
3.691428571428571595e+05
3.704285714285714203e+05
3.717142857142857392e+05
3.730000000000000000e+05
3.742857142857143190e+05
3.755714285714285797e+05
3.768571428571428405e+05
3.781428571428571595e+05
3.794285714285714203e+05
3.807142857142857392e+05
3.820000000000000000e+05
3.832857142857143190e+05
3.845714285714285797e+05
3.858571428571428405e+05
3.871428571428571595e+05
3.884285714285714203e+05
3.897142857142857392e+05
3.910000000000000000e+05
3.922857142857143190e+05
3.935714285714285797e+05
3.948571428571428405e+05
3.961428571428571595e+05
3.974285714285714203e+05
3.987142857142857392e+05
4.000000000000000000e+05
3.370000000000000000e+05
3.382857142857142608e+05
3.395714285714285797e+05
3.408571428571428405e+05
3.421428571428571595e+05
3.434285714285714203e+05
3.447142857142857392e+05
3.460000000000000000e+05
3.472857142857142608e+05
3.485714285714285797e+05
3.498571428571428405e+05
3.511428571428571595e+05
3.524285714285714203e+05
3.537142857142857392e+05
3.550000000000000000e+05
3.562857142857142608e+05
3.575714285714285797e+05
3.588571428571428405e+05
3.601428571428571595e+05
3.614285714285714203e+05
3.627142857142857392e+05
3.640000000000000000e+05
3.652857142857142608e+05
3.665714285714285797e+05
3.678571428571428405e+05
3.691428571428571595e+05
3.704285714285714203e+05
3.717142857142857392e+05
3.730000000000000000e+05
3.742857142857143190e+05
3.755714285714285797e+05
3.768571428571428405e+05
3.781428571428571595e+05
3.794285714285714203e+05
3.807142857142857392e+05
3.820000000000000000e+05
3.832857142857143190e+05
3.845714285714285797e+05
3.858571428571428405e+05
3.871428571428571595e+05
3.884285714285714203e+05
3.897142857142857392e+05
3.910000000000000000e+05
3.922857142857143190e+05
3.935714285714285797e+05
3.948571428571428405e+05
3.961428571428571595e+05
3.974285714285714203e+05
3.987142857142857392e+05
4.000000000000000000e+05
3.370000000000000000e+05
3.382857142857142608e+05
3.395714285714285797e+05
3.408571428571428405e+05
3.421428571428571595e+05
3.434285714285714203e+05
3.447142857142857392e+05
3.460000000000000000e+05
3.472857142857142608e+05
3.485714285714285797e+05
3.498571428571428405e+05
3.511428571428571595e+05
3.524285714285714203e+05
3.537142857142857392e+05
3.550000000000000000e+05
3.562857142857142608e+05
3.575714285714285797e+05
3.588571428571428405e+05
3.601428571428571595e+05
3.614285714285714203e+05
3.627142857142857392e+05
3.640000000000000000e+05
3.652857142857142608e+05
3.665714285714285797e+05
3.678571428571428405e+05
3.691428571428571595e+05
3.704285714285714203e+05
3.717142857142857392e+05
3.730000000000000000e+05
3.742857142857143190e+05
3.755714285714285797e+05
3.768571428571428405e+05
3.781428571428571595e+05
3.794285714285714203e+05
3.807142857142857392e+05
3.820000000000000000e+05
3.832857142857143190e+05
3.845714285714285797e+05
3.858571428571428405e+05
3.871428571428571595e+05
3.884285714285714203e+05
3.897142857142857392e+05
3.910000000000000000e+05
3.922857142857143190e+05
3.935714285714285797e+05
3.948571428571428405e+05
3.961428571428571595e+05
3.974285714285714203e+05
3.987142857142857392e+05
4.000000000000000000e+05
3.370000000000000000e+05
3.382857142857142608e+05
3.395714285714285797e+05
3.408571428571428405e+05
3.421428571428571595e+05
3.434285714285714203e+05
3.447142857142857392e+05
3.460000000000000000e+05
3.472857142857142608e+05
3.485714285714285797e+05
3.498571428571428405e+05
3.511428571428571595e+05
3.524285714285714203e+05
3.537142857142857392e+05
3.550000000000000000e+05
3.562857142857142608e+05
3.575714285714285797e+05
3.588571428571428405e+05
3.601428571428571595e+05
3.614285714285714203e+05
3.627142857142857392e+05
3.640000000000000000e+05
3.652857142857142608e+05
3.665714285714285797e+05
3.678571428571428405e+05
3.691428571428571595e+05
3.704285714285714203e+05
3.717142857142857392e+05
3.730000000000000000e+05
3.742857142857143190e+05
3.755714285714285797e+05
3.768571428571428405e+05
3.781428571428571595e+05
3.794285714285714203e+05
3.807142857142857392e+05
3.820000000000000000e+05
3.832857142857143190e+05
3.845714285714285797e+05
3.858571428571428405e+05
3.871428571428571595e+05
3.884285714285714203e+05
3.897142857142857392e+05
3.910000000000000000e+05
3.922857142857143190e+05
3.935714285714285797e+05
3.948571428571428405e+05
3.961428571428571595e+05
3.974285714285714203e+05
3.987142857142857392e+05
4.000000000000000000e+05
3.370000000000000000e+05
3.382857142857142608e+05
3.395714285714285797e+05
3.408571428571428405e+05
3.421428571428571595e+05
3.434285714285714203e+05
3.447142857142857392e+05
3.460000000000000000e+05
3.472857142857142608e+05
3.485714285714285797e+05
3.498571428571428405e+05
3.511428571428571595e+05
3.524285714285714203e+05
3.537142857142857392e+05
3.550000000000000000e+05
3.562857142857142608e+05
3.575714285714285797e+05
3.588571428571428405e+05
3.601428571428571595e+05
3.614285714285714203e+05
3.627142857142857392e+05
3.640000000000000000e+05
3.652857142857142608e+05
3.665714285714285797e+05
3.678571428571428405e+05
3.691428571428571595e+05
3.704285714285714203e+05
3.717142857142857392e+05
3.730000000000000000e+05
3.742857142857143190e+05
3.755714285714285797e+05
3.768571428571428405e+05
3.781428571428571595e+05
3.794285714285714203e+05
3.807142857142857392e+05
3.820000000000000000e+05
3.832857142857143190e+05
3.845714285714285797e+05
3.858571428571428405e+05
3.871428571428571595e+05
3.884285714285714203e+05
3.897142857142857392e+05
3.910000000000000000e+05
3.922857142857143190e+05
3.935714285714285797e+05
3.948571428571428405e+05
3.961428571428571595e+05
3.974285714285714203e+05
3.987142857142857392e+05
4.000000000000000000e+05
3.370000000000000000e+05
3.382857142857142608e+05
3.395714285714285797e+05
3.408571428571428405e+05
3.421428571428571595e+05
3.434285714285714203e+05
3.447142857142857392e+05
3.460000000000000000e+05
3.472857142857142608e+05
3.485714285714285797e+05
3.498571428571428405e+05
3.511428571428571595e+05
3.524285714285714203e+05
3.537142857142857392e+05
3.550000000000000000e+05
3.562857142857142608e+05
3.575714285714285797e+05
3.588571428571428405e+05
3.601428571428571595e+05
3.614285714285714203e+05
3.627142857142857392e+05
3.640000000000000000e+05
3.652857142857142608e+05
3.665714285714285797e+05
3.678571428571428405e+05
3.691428571428571595e+05
3.704285714285714203e+05
3.717142857142857392e+05
3.730000000000000000e+05
3.742857142857143190e+05
3.755714285714285797e+05
3.768571428571428405e+05
3.781428571428571595e+05
3.794285714285714203e+05
3.807142857142857392e+05
3.820000000000000000e+05
3.832857142857143190e+05
3.845714285714285797e+05
3.858571428571428405e+05
3.871428571428571595e+05
3.884285714285714203e+05
3.897142857142857392e+05
3.910000000000000000e+05
3.922857142857143190e+05
3.935714285714285797e+05
3.948571428571428405e+05
3.961428571428571595e+05
3.974285714285714203e+05
3.987142857142857392e+05
4.000000000000000000e+05
3.370000000000000000e+05
3.382857142857142608e+05
3.395714285714285797e+05
3.408571428571428405e+05
3.421428571428571595e+05
3.434285714285714203e+05
3.447142857142857392e+05
3.460000000000000000e+05
3.472857142857142608e+05
3.485714285714285797e+05
3.498571428571428405e+05
3.511428571428571595e+05
3.524285714285714203e+05
3.537142857142857392e+05
3.550000000000000000e+05
3.562857142857142608e+05
3.575714285714285797e+05
3.588571428571428405e+05
3.601428571428571595e+05
3.614285714285714203e+05
3.627142857142857392e+05
3.640000000000000000e+05
3.652857142857142608e+05
3.665714285714285797e+05
3.678571428571428405e+05
3.691428571428571595e+05
3.704285714285714203e+05
3.717142857142857392e+05
3.730000000000000000e+05
3.742857142857143190e+05
3.755714285714285797e+05
3.768571428571428405e+05
3.781428571428571595e+05
3.794285714285714203e+05
3.807142857142857392e+05
3.820000000000000000e+05
3.832857142857143190e+05
3.845714285714285797e+05
3.858571428571428405e+05
3.871428571428571595e+05
3.884285714285714203e+05
3.897142857142857392e+05
3.910000000000000000e+05
3.922857142857143190e+05
3.935714285714285797e+05
3.948571428571428405e+05
3.961428571428571595e+05
3.974285714285714203e+05
3.987142857142857392e+05
4.000000000000000000e+05
3.370000000000000000e+05
3.382857142857142608e+05
3.395714285714285797e+05
3.408571428571428405e+05
3.421428571428571595e+05
3.434285714285714203e+05
3.447142857142857392e+05
3.460000000000000000e+05
3.472857142857142608e+05
3.485714285714285797e+05
3.498571428571428405e+05
3.511428571428571595e+05
3.524285714285714203e+05
3.537142857142857392e+05
3.550000000000000000e+05
3.562857142857142608e+05
3.575714285714285797e+05
3.588571428571428405e+05
3.601428571428571595e+05
3.614285714285714203e+05
3.627142857142857392e+05
3.640000000000000000e+05
3.652857142857142608e+05
3.665714285714285797e+05
3.678571428571428405e+05
3.691428571428571595e+05
3.704285714285714203e+05
3.717142857142857392e+05
3.730000000000000000e+05
3.742857142857143190e+05
3.755714285714285797e+05
3.768571428571428405e+05
3.781428571428571595e+05
3.794285714285714203e+05
3.807142857142857392e+05
3.820000000000000000e+05
3.832857142857143190e+05
3.845714285714285797e+05
3.858571428571428405e+05
3.871428571428571595e+05
3.884285714285714203e+05
3.897142857142857392e+05
3.910000000000000000e+05
3.922857142857143190e+05
3.935714285714285797e+05
3.948571428571428405e+05
3.961428571428571595e+05
3.974285714285714203e+05
3.987142857142857392e+05
4.000000000000000000e+05
3.370000000000000000e+05
3.382857142857142608e+05
3.395714285714285797e+05
3.408571428571428405e+05
3.421428571428571595e+05
3.434285714285714203e+05
3.447142857142857392e+05
3.460000000000000000e+05
3.472857142857142608e+05
3.485714285714285797e+05
3.498571428571428405e+05
3.511428571428571595e+05
3.524285714285714203e+05
3.537142857142857392e+05
3.550000000000000000e+05
3.562857142857142608e+05
3.575714285714285797e+05
3.588571428571428405e+05
3.601428571428571595e+05
3.614285714285714203e+05
3.627142857142857392e+05
3.640000000000000000e+05
3.652857142857142608e+05
3.665714285714285797e+05
3.678571428571428405e+05
3.691428571428571595e+05
3.704285714285714203e+05
3.717142857142857392e+05
3.730000000000000000e+05
3.742857142857143190e+05
3.755714285714285797e+05
3.768571428571428405e+05
3.781428571428571595e+05
3.794285714285714203e+05
3.807142857142857392e+05
3.820000000000000000e+05
3.832857142857143190e+05
3.845714285714285797e+05
3.858571428571428405e+05
3.871428571428571595e+05
3.884285714285714203e+05
3.897142857142857392e+05
3.910000000000000000e+05
3.922857142857143190e+05
3.935714285714285797e+05
3.948571428571428405e+05
3.961428571428571595e+05
3.974285714285714203e+05
3.987142857142857392e+05
4.000000000000000000e+05
3.370000000000000000e+05
3.382857142857142608e+05
3.395714285714285797e+05
3.408571428571428405e+05
3.421428571428571595e+05
3.434285714285714203e+05
3.447142857142857392e+05
3.460000000000000000e+05
3.472857142857142608e+05
3.485714285714285797e+05
3.498571428571428405e+05
3.511428571428571595e+05
3.524285714285714203e+05
3.537142857142857392e+05
3.550000000000000000e+05
3.562857142857142608e+05
3.575714285714285797e+05
3.588571428571428405e+05
3.601428571428571595e+05
3.614285714285714203e+05
3.627142857142857392e+05
3.640000000000000000e+05
3.652857142857142608e+05
3.665714285714285797e+05
3.678571428571428405e+05
3.691428571428571595e+05
3.704285714285714203e+05
3.717142857142857392e+05
3.730000000000000000e+05
3.742857142857143190e+05
3.755714285714285797e+05
3.768571428571428405e+05
3.781428571428571595e+05
3.794285714285714203e+05
3.807142857142857392e+05
3.820000000000000000e+05
3.832857142857143190e+05
3.845714285714285797e+05
3.858571428571428405e+05
3.871428571428571595e+05
3.884285714285714203e+05
3.897142857142857392e+05
3.910000000000000000e+05
3.922857142857143190e+05
3.935714285714285797e+05
3.948571428571428405e+05
3.961428571428571595e+05
3.974285714285714203e+05
3.987142857142857392e+05
4.000000000000000000e+05
3.370000000000000000e+05
3.382857142857142608e+05
3.395714285714285797e+05
3.408571428571428405e+05
3.421428571428571595e+05
3.434285714285714203e+05
3.447142857142857392e+05
3.460000000000000000e+05
3.472857142857142608e+05
3.485714285714285797e+05
3.498571428571428405e+05
3.511428571428571595e+05
3.524285714285714203e+05
3.537142857142857392e+05
3.550000000000000000e+05
3.562857142857142608e+05
3.575714285714285797e+05
3.588571428571428405e+05
3.601428571428571595e+05
3.614285714285714203e+05
3.627142857142857392e+05
3.640000000000000000e+05
3.652857142857142608e+05
3.665714285714285797e+05
3.678571428571428405e+05
3.691428571428571595e+05
3.704285714285714203e+05
3.717142857142857392e+05
3.730000000000000000e+05
3.742857142857143190e+05
3.755714285714285797e+05
3.768571428571428405e+05
3.781428571428571595e+05
3.794285714285714203e+05
3.807142857142857392e+05
3.820000000000000000e+05
3.832857142857143190e+05
3.845714285714285797e+05
3.858571428571428405e+05
3.871428571428571595e+05
3.884285714285714203e+05
3.897142857142857392e+05
3.910000000000000000e+05
3.922857142857143190e+05
3.935714285714285797e+05
3.948571428571428405e+05
3.961428571428571595e+05
3.974285714285714203e+05
3.987142857142857392e+05
4.000000000000000000e+05
3.370000000000000000e+05
3.382857142857142608e+05
3.395714285714285797e+05
3.408571428571428405e+05
3.421428571428571595e+05
3.434285714285714203e+05
3.447142857142857392e+05
3.460000000000000000e+05
3.472857142857142608e+05
3.485714285714285797e+05
3.498571428571428405e+05
3.511428571428571595e+05
3.524285714285714203e+05
3.537142857142857392e+05
3.550000000000000000e+05
3.562857142857142608e+05
3.575714285714285797e+05
3.588571428571428405e+05
3.601428571428571595e+05
3.614285714285714203e+05
3.627142857142857392e+05
3.640000000000000000e+05
3.652857142857142608e+05
3.665714285714285797e+05
3.678571428571428405e+05
3.691428571428571595e+05
3.704285714285714203e+05
3.717142857142857392e+05
3.730000000000000000e+05
3.742857142857143190e+05
3.755714285714285797e+05
3.768571428571428405e+05
3.781428571428571595e+05
3.794285714285714203e+05
3.807142857142857392e+05
3.820000000000000000e+05
3.832857142857143190e+05
3.845714285714285797e+05
3.858571428571428405e+05
3.871428571428571595e+05
3.884285714285714203e+05
3.897142857142857392e+05
3.910000000000000000e+05
3.922857142857143190e+05
3.935714285714285797e+05
3.948571428571428405e+05
3.961428571428571595e+05
3.974285714285714203e+05
3.987142857142857392e+05
4.000000000000000000e+05
3.370000000000000000e+05
3.382857142857142608e+05
3.395714285714285797e+05
3.408571428571428405e+05
3.421428571428571595e+05
3.434285714285714203e+05
3.447142857142857392e+05
3.460000000000000000e+05
3.472857142857142608e+05
3.485714285714285797e+05
3.498571428571428405e+05
3.511428571428571595e+05
3.524285714285714203e+05
3.537142857142857392e+05
3.550000000000000000e+05
3.562857142857142608e+05
3.575714285714285797e+05
3.588571428571428405e+05
3.601428571428571595e+05
3.614285714285714203e+05
3.627142857142857392e+05
3.640000000000000000e+05
3.652857142857142608e+05
3.665714285714285797e+05
3.678571428571428405e+05
3.691428571428571595e+05
3.704285714285714203e+05
3.717142857142857392e+05
3.730000000000000000e+05
3.742857142857143190e+05
3.755714285714285797e+05
3.768571428571428405e+05
3.781428571428571595e+05
3.794285714285714203e+05
3.807142857142857392e+05
3.820000000000000000e+05
3.832857142857143190e+05
3.845714285714285797e+05
3.858571428571428405e+05
3.871428571428571595e+05
3.884285714285714203e+05
3.897142857142857392e+05
3.910000000000000000e+05
3.922857142857143190e+05
3.935714285714285797e+05
3.948571428571428405e+05
3.961428571428571595e+05
3.974285714285714203e+05
3.987142857142857392e+05
4.000000000000000000e+05
3.370000000000000000e+05
3.382857142857142608e+05
3.395714285714285797e+05
3.408571428571428405e+05
3.421428571428571595e+05
3.434285714285714203e+05
3.447142857142857392e+05
3.460000000000000000e+05
3.472857142857142608e+05
3.485714285714285797e+05
3.498571428571428405e+05
3.511428571428571595e+05
3.524285714285714203e+05
3.537142857142857392e+05
3.550000000000000000e+05
3.562857142857142608e+05
3.575714285714285797e+05
3.588571428571428405e+05
3.601428571428571595e+05
3.614285714285714203e+05
3.627142857142857392e+05
3.640000000000000000e+05
3.652857142857142608e+05
3.665714285714285797e+05
3.678571428571428405e+05
3.691428571428571595e+05
3.704285714285714203e+05
3.717142857142857392e+05
3.730000000000000000e+05
3.742857142857143190e+05
3.755714285714285797e+05
3.768571428571428405e+05
3.781428571428571595e+05
3.794285714285714203e+05
3.807142857142857392e+05
3.820000000000000000e+05
3.832857142857143190e+05
3.845714285714285797e+05
3.858571428571428405e+05
3.871428571428571595e+05
3.884285714285714203e+05
3.897142857142857392e+05
3.910000000000000000e+05
3.922857142857143190e+05
3.935714285714285797e+05
3.948571428571428405e+05
3.961428571428571595e+05
3.974285714285714203e+05
3.987142857142857392e+05
4.000000000000000000e+05
3.370000000000000000e+05
3.382857142857142608e+05
3.395714285714285797e+05
3.408571428571428405e+05
3.421428571428571595e+05
3.434285714285714203e+05
3.447142857142857392e+05
3.460000000000000000e+05
3.472857142857142608e+05
3.485714285714285797e+05
3.498571428571428405e+05
3.511428571428571595e+05
3.524285714285714203e+05
3.537142857142857392e+05
3.550000000000000000e+05
3.562857142857142608e+05
3.575714285714285797e+05
3.588571428571428405e+05
3.601428571428571595e+05
3.614285714285714203e+05
3.627142857142857392e+05
3.640000000000000000e+05
3.652857142857142608e+05
3.665714285714285797e+05
3.678571428571428405e+05
3.691428571428571595e+05
3.704285714285714203e+05
3.717142857142857392e+05
3.730000000000000000e+05
3.742857142857143190e+05
3.755714285714285797e+05
3.768571428571428405e+05
3.781428571428571595e+05
3.794285714285714203e+05
3.807142857142857392e+05
3.820000000000000000e+05
3.832857142857143190e+05
3.845714285714285797e+05
3.858571428571428405e+05
3.871428571428571595e+05
3.884285714285714203e+05
3.897142857142857392e+05
3.910000000000000000e+05
3.922857142857143190e+05
3.935714285714285797e+05
3.948571428571428405e+05
3.961428571428571595e+05
3.974285714285714203e+05
3.987142857142857392e+05
4.000000000000000000e+05
3.370000000000000000e+05
3.382857142857142608e+05
3.395714285714285797e+05
3.408571428571428405e+05
3.421428571428571595e+05
3.434285714285714203e+05
3.447142857142857392e+05
3.460000000000000000e+05
3.472857142857142608e+05
3.485714285714285797e+05
3.498571428571428405e+05
3.511428571428571595e+05
3.524285714285714203e+05
3.537142857142857392e+05
3.550000000000000000e+05
3.562857142857142608e+05
3.575714285714285797e+05
3.588571428571428405e+05
3.601428571428571595e+05
3.614285714285714203e+05
3.627142857142857392e+05
3.640000000000000000e+05
3.652857142857142608e+05
3.665714285714285797e+05
3.678571428571428405e+05
3.691428571428571595e+05
3.704285714285714203e+05
3.717142857142857392e+05
3.730000000000000000e+05
3.742857142857143190e+05
3.755714285714285797e+05
3.768571428571428405e+05
3.781428571428571595e+05
3.794285714285714203e+05
3.807142857142857392e+05
3.820000000000000000e+05
3.832857142857143190e+05
3.845714285714285797e+05
3.858571428571428405e+05
3.871428571428571595e+05
3.884285714285714203e+05
3.897142857142857392e+05
3.910000000000000000e+05
3.922857142857143190e+05
3.935714285714285797e+05
3.948571428571428405e+05
3.961428571428571595e+05
3.974285714285714203e+05
3.987142857142857392e+05
4.000000000000000000e+05
3.370000000000000000e+05
3.382857142857142608e+05
3.395714285714285797e+05
3.408571428571428405e+05
3.421428571428571595e+05
3.434285714285714203e+05
3.447142857142857392e+05
3.460000000000000000e+05
3.472857142857142608e+05
3.485714285714285797e+05
3.498571428571428405e+05
3.511428571428571595e+05
3.524285714285714203e+05
3.537142857142857392e+05
3.550000000000000000e+05
3.562857142857142608e+05
3.575714285714285797e+05
3.588571428571428405e+05
3.601428571428571595e+05
3.614285714285714203e+05
3.627142857142857392e+05
3.640000000000000000e+05
3.652857142857142608e+05
3.665714285714285797e+05
3.678571428571428405e+05
3.691428571428571595e+05
3.704285714285714203e+05
3.717142857142857392e+05
3.730000000000000000e+05
3.742857142857143190e+05
3.755714285714285797e+05
3.768571428571428405e+05
3.781428571428571595e+05
3.794285714285714203e+05
3.807142857142857392e+05
3.820000000000000000e+05
3.832857142857143190e+05
3.845714285714285797e+05
3.858571428571428405e+05
3.871428571428571595e+05
3.884285714285714203e+05
3.897142857142857392e+05
3.910000000000000000e+05
3.922857142857143190e+05
3.935714285714285797e+05
3.948571428571428405e+05
3.961428571428571595e+05
3.974285714285714203e+05
3.987142857142857392e+05
4.000000000000000000e+05
3.370000000000000000e+05
3.382857142857142608e+05
3.395714285714285797e+05
3.408571428571428405e+05
3.421428571428571595e+05
3.434285714285714203e+05
3.447142857142857392e+05
3.460000000000000000e+05
3.472857142857142608e+05
3.485714285714285797e+05
3.498571428571428405e+05
3.511428571428571595e+05
3.524285714285714203e+05
3.537142857142857392e+05
3.550000000000000000e+05
3.562857142857142608e+05
3.575714285714285797e+05
3.588571428571428405e+05
3.601428571428571595e+05
3.614285714285714203e+05
3.627142857142857392e+05
3.640000000000000000e+05
3.652857142857142608e+05
3.665714285714285797e+05
3.678571428571428405e+05
3.691428571428571595e+05
3.704285714285714203e+05
3.717142857142857392e+05
3.730000000000000000e+05
3.742857142857143190e+05
3.755714285714285797e+05
3.768571428571428405e+05
3.781428571428571595e+05
3.794285714285714203e+05
3.807142857142857392e+05
3.820000000000000000e+05
3.832857142857143190e+05
3.845714285714285797e+05
3.858571428571428405e+05
3.871428571428571595e+05
3.884285714285714203e+05
3.897142857142857392e+05
3.910000000000000000e+05
3.922857142857143190e+05
3.935714285714285797e+05
3.948571428571428405e+05
3.961428571428571595e+05
3.974285714285714203e+05
3.987142857142857392e+05
4.000000000000000000e+05
3.370000000000000000e+05
3.382857142857142608e+05
3.395714285714285797e+05
3.408571428571428405e+05
3.421428571428571595e+05
3.434285714285714203e+05
3.447142857142857392e+05
3.460000000000000000e+05
3.472857142857142608e+05
3.485714285714285797e+05
3.498571428571428405e+05
3.511428571428571595e+05
3.524285714285714203e+05
3.537142857142857392e+05
3.550000000000000000e+05
3.562857142857142608e+05
3.575714285714285797e+05
3.588571428571428405e+05
3.601428571428571595e+05
3.614285714285714203e+05
3.627142857142857392e+05
3.640000000000000000e+05
3.652857142857142608e+05
3.665714285714285797e+05
3.678571428571428405e+05
3.691428571428571595e+05
3.704285714285714203e+05
3.717142857142857392e+05
3.730000000000000000e+05
3.742857142857143190e+05
3.755714285714285797e+05
3.768571428571428405e+05
3.781428571428571595e+05
3.794285714285714203e+05
3.807142857142857392e+05
3.820000000000000000e+05
3.832857142857143190e+05
3.845714285714285797e+05
3.858571428571428405e+05
3.871428571428571595e+05
3.884285714285714203e+05
3.897142857142857392e+05
3.910000000000000000e+05
3.922857142857143190e+05
3.935714285714285797e+05
3.948571428571428405e+05
3.961428571428571595e+05
3.974285714285714203e+05
3.987142857142857392e+05
4.000000000000000000e+05
3.370000000000000000e+05
3.382857142857142608e+05
3.395714285714285797e+05
3.408571428571428405e+05
3.421428571428571595e+05
3.434285714285714203e+05
3.447142857142857392e+05
3.460000000000000000e+05
3.472857142857142608e+05
3.485714285714285797e+05
3.498571428571428405e+05
3.511428571428571595e+05
3.524285714285714203e+05
3.537142857142857392e+05
3.550000000000000000e+05
3.562857142857142608e+05
3.575714285714285797e+05
3.588571428571428405e+05
3.601428571428571595e+05
3.614285714285714203e+05
3.627142857142857392e+05
3.640000000000000000e+05
3.652857142857142608e+05
3.665714285714285797e+05
3.678571428571428405e+05
3.691428571428571595e+05
3.704285714285714203e+05
3.717142857142857392e+05
3.730000000000000000e+05
3.742857142857143190e+05
3.755714285714285797e+05
3.768571428571428405e+05
3.781428571428571595e+05
3.794285714285714203e+05
3.807142857142857392e+05
3.820000000000000000e+05
3.832857142857143190e+05
3.845714285714285797e+05
3.858571428571428405e+05
3.871428571428571595e+05
3.884285714285714203e+05
3.897142857142857392e+05
3.910000000000000000e+05
3.922857142857143190e+05
3.935714285714285797e+05
3.948571428571428405e+05
3.961428571428571595e+05
3.974285714285714203e+05
3.987142857142857392e+05
4.000000000000000000e+05
3.370000000000000000e+05
3.382857142857142608e+05
3.395714285714285797e+05
3.408571428571428405e+05
3.421428571428571595e+05
3.434285714285714203e+05
3.447142857142857392e+05
3.460000000000000000e+05
3.472857142857142608e+05
3.485714285714285797e+05
3.498571428571428405e+05
3.511428571428571595e+05
3.524285714285714203e+05
3.537142857142857392e+05
3.550000000000000000e+05
3.562857142857142608e+05
3.575714285714285797e+05
3.588571428571428405e+05
3.601428571428571595e+05
3.614285714285714203e+05
3.627142857142857392e+05
3.640000000000000000e+05
3.652857142857142608e+05
3.665714285714285797e+05
3.678571428571428405e+05
3.691428571428571595e+05
3.704285714285714203e+05
3.717142857142857392e+05
3.730000000000000000e+05
3.742857142857143190e+05
3.755714285714285797e+05
3.768571428571428405e+05
3.781428571428571595e+05
3.794285714285714203e+05
3.807142857142857392e+05
3.820000000000000000e+05
3.832857142857143190e+05
3.845714285714285797e+05
3.858571428571428405e+05
3.871428571428571595e+05
3.884285714285714203e+05
3.897142857142857392e+05
3.910000000000000000e+05
3.922857142857143190e+05
3.935714285714285797e+05
3.948571428571428405e+05
3.961428571428571595e+05
3.974285714285714203e+05
3.987142857142857392e+05
4.000000000000000000e+05
3.370000000000000000e+05
3.382857142857142608e+05
3.395714285714285797e+05
3.408571428571428405e+05
3.421428571428571595e+05
3.434285714285714203e+05
3.447142857142857392e+05
3.460000000000000000e+05
3.472857142857142608e+05
3.485714285714285797e+05
3.498571428571428405e+05
3.511428571428571595e+05
3.524285714285714203e+05
3.537142857142857392e+05
3.550000000000000000e+05
3.562857142857142608e+05
3.575714285714285797e+05
3.588571428571428405e+05
3.601428571428571595e+05
3.614285714285714203e+05
3.627142857142857392e+05
3.640000000000000000e+05
3.652857142857142608e+05
3.665714285714285797e+05
3.678571428571428405e+05
3.691428571428571595e+05
3.704285714285714203e+05
3.717142857142857392e+05
3.730000000000000000e+05
3.742857142857143190e+05
3.755714285714285797e+05
3.768571428571428405e+05
3.781428571428571595e+05
3.794285714285714203e+05
3.807142857142857392e+05
3.820000000000000000e+05
3.832857142857143190e+05
3.845714285714285797e+05
3.858571428571428405e+05
3.871428571428571595e+05
3.884285714285714203e+05
3.897142857142857392e+05
3.910000000000000000e+05
3.922857142857143190e+05
3.935714285714285797e+05
3.948571428571428405e+05
3.961428571428571595e+05
3.974285714285714203e+05
3.987142857142857392e+05
4.000000000000000000e+05
3.370000000000000000e+05
3.382857142857142608e+05
3.395714285714285797e+05
3.408571428571428405e+05
3.421428571428571595e+05
3.434285714285714203e+05
3.447142857142857392e+05
3.460000000000000000e+05
3.472857142857142608e+05
3.485714285714285797e+05
3.498571428571428405e+05
3.511428571428571595e+05
3.524285714285714203e+05
3.537142857142857392e+05
3.550000000000000000e+05
3.562857142857142608e+05
3.575714285714285797e+05
3.588571428571428405e+05
3.601428571428571595e+05
3.614285714285714203e+05
3.627142857142857392e+05
3.640000000000000000e+05
3.652857142857142608e+05
3.665714285714285797e+05
3.678571428571428405e+05
3.691428571428571595e+05
3.704285714285714203e+05
3.717142857142857392e+05
3.730000000000000000e+05
3.742857142857143190e+05
3.755714285714285797e+05
3.768571428571428405e+05
3.781428571428571595e+05
3.794285714285714203e+05
3.807142857142857392e+05
3.820000000000000000e+05
3.832857142857143190e+05
3.845714285714285797e+05
3.858571428571428405e+05
3.871428571428571595e+05
3.884285714285714203e+05
3.897142857142857392e+05
3.910000000000000000e+05
3.922857142857143190e+05
3.935714285714285797e+05
3.948571428571428405e+05
3.961428571428571595e+05
3.974285714285714203e+05
3.987142857142857392e+05
4.000000000000000000e+05
3.370000000000000000e+05
3.382857142857142608e+05
3.395714285714285797e+05
3.408571428571428405e+05
3.421428571428571595e+05
3.434285714285714203e+05
3.447142857142857392e+05
3.460000000000000000e+05
3.472857142857142608e+05
3.485714285714285797e+05
3.498571428571428405e+05
3.511428571428571595e+05
3.524285714285714203e+05
3.537142857142857392e+05
3.550000000000000000e+05
3.562857142857142608e+05
3.575714285714285797e+05
3.588571428571428405e+05
3.601428571428571595e+05
3.614285714285714203e+05
3.627142857142857392e+05
3.640000000000000000e+05
3.652857142857142608e+05
3.665714285714285797e+05
3.678571428571428405e+05
3.691428571428571595e+05
3.704285714285714203e+05
3.717142857142857392e+05
3.730000000000000000e+05
3.742857142857143190e+05
3.755714285714285797e+05
3.768571428571428405e+05
3.781428571428571595e+05
3.794285714285714203e+05
3.807142857142857392e+05
3.820000000000000000e+05
3.832857142857143190e+05
3.845714285714285797e+05
3.858571428571428405e+05
3.871428571428571595e+05
3.884285714285714203e+05
3.897142857142857392e+05
3.910000000000000000e+05
3.922857142857143190e+05
3.935714285714285797e+05
3.948571428571428405e+05
3.961428571428571595e+05
3.974285714285714203e+05
3.987142857142857392e+05
4.000000000000000000e+05
6.640000000000000000e+06
6.640000000000000000e+06
6.640000000000000000e+06
6.640000000000000000e+06
6.640000000000000000e+06
6.640000000000000000e+06
6.640000000000000000e+06
6.640000000000000000e+06
6.640000000000000000e+06
6.640000000000000000e+06
6.640000000000000000e+06
6.640000000000000000e+06
6.640000000000000000e+06
6.640000000000000000e+06
6.640000000000000000e+06
6.640000000000000000e+06
6.640000000000000000e+06
6.640000000000000000e+06
6.640000000000000000e+06
6.640000000000000000e+06
6.640000000000000000e+06
6.640000000000000000e+06
6.640000000000000000e+06
6.640000000000000000e+06
6.640000000000000000e+06
6.640000000000000000e+06
6.640000000000000000e+06
6.640000000000000000e+06
6.640000000000000000e+06
6.640000000000000000e+06
6.640000000000000000e+06
6.640000000000000000e+06
6.640000000000000000e+06
6.640000000000000000e+06
6.640000000000000000e+06
6.640000000000000000e+06
6.640000000000000000e+06
6.640000000000000000e+06
6.640000000000000000e+06
6.640000000000000000e+06
6.640000000000000000e+06
6.640000000000000000e+06
6.640000000000000000e+06
6.640000000000000000e+06
6.640000000000000000e+06
6.640000000000000000e+06
6.640000000000000000e+06
6.640000000000000000e+06
6.640000000000000000e+06
6.640000000000000000e+06
6.641428571428571828e+06
6.641428571428571828e+06
6.641428571428571828e+06
6.641428571428571828e+06
6.641428571428571828e+06
6.641428571428571828e+06
6.641428571428571828e+06
6.641428571428571828e+06
6.641428571428571828e+06
6.641428571428571828e+06
6.641428571428571828e+06
6.641428571428571828e+06
6.641428571428571828e+06
6.641428571428571828e+06
6.641428571428571828e+06
6.641428571428571828e+06
6.641428571428571828e+06
6.641428571428571828e+06
6.641428571428571828e+06
6.641428571428571828e+06
6.641428571428571828e+06
6.641428571428571828e+06
6.641428571428571828e+06
6.641428571428571828e+06
6.641428571428571828e+06
6.641428571428571828e+06
6.641428571428571828e+06
6.641428571428571828e+06
6.641428571428571828e+06
6.641428571428571828e+06
6.641428571428571828e+06
6.641428571428571828e+06
6.641428571428571828e+06
6.641428571428571828e+06
6.641428571428571828e+06
6.641428571428571828e+06
6.641428571428571828e+06
6.641428571428571828e+06
6.641428571428571828e+06
6.641428571428571828e+06
6.641428571428571828e+06
6.641428571428571828e+06
6.641428571428571828e+06
6.641428571428571828e+06
6.641428571428571828e+06
6.641428571428571828e+06
6.641428571428571828e+06
6.641428571428571828e+06
6.641428571428571828e+06
6.641428571428571828e+06
6.642857142857142724e+06
6.642857142857142724e+06
6.642857142857142724e+06
6.642857142857142724e+06
6.642857142857142724e+06
6.642857142857142724e+06
6.642857142857142724e+06
6.642857142857142724e+06
6.642857142857142724e+06
6.642857142857142724e+06
6.642857142857142724e+06
6.642857142857142724e+06
6.642857142857142724e+06
6.642857142857142724e+06
6.642857142857142724e+06
6.642857142857142724e+06
6.642857142857142724e+06
6.642857142857142724e+06
6.642857142857142724e+06
6.642857142857142724e+06
6.642857142857142724e+06
6.642857142857142724e+06
6.642857142857142724e+06
6.642857142857142724e+06
6.642857142857142724e+06
6.642857142857142724e+06
6.642857142857142724e+06
6.642857142857142724e+06
6.642857142857142724e+06
6.642857142857142724e+06
6.642857142857142724e+06
6.642857142857142724e+06
6.642857142857142724e+06
6.642857142857142724e+06
6.642857142857142724e+06
6.642857142857142724e+06
6.642857142857142724e+06
6.642857142857142724e+06
6.642857142857142724e+06
6.642857142857142724e+06
6.642857142857142724e+06
6.642857142857142724e+06
6.642857142857142724e+06
6.642857142857142724e+06
6.642857142857142724e+06
6.642857142857142724e+06
6.642857142857142724e+06
6.642857142857142724e+06
6.642857142857142724e+06
6.642857142857142724e+06
6.644285714285714552e+06
6.644285714285714552e+06
6.644285714285714552e+06
6.644285714285714552e+06
6.644285714285714552e+06
6.644285714285714552e+06
6.644285714285714552e+06
6.644285714285714552e+06
6.644285714285714552e+06
6.644285714285714552e+06
6.644285714285714552e+06
6.644285714285714552e+06
6.644285714285714552e+06
6.644285714285714552e+06
6.644285714285714552e+06
6.644285714285714552e+06
6.644285714285714552e+06
6.644285714285714552e+06
6.644285714285714552e+06
6.644285714285714552e+06
6.644285714285714552e+06
6.644285714285714552e+06
6.644285714285714552e+06
6.644285714285714552e+06
6.644285714285714552e+06
6.644285714285714552e+06
6.644285714285714552e+06
6.644285714285714552e+06
6.644285714285714552e+06
6.644285714285714552e+06
6.644285714285714552e+06
6.644285714285714552e+06
6.644285714285714552e+06
6.644285714285714552e+06
6.644285714285714552e+06
6.644285714285714552e+06
6.644285714285714552e+06
6.644285714285714552e+06
6.644285714285714552e+06
6.644285714285714552e+06
6.644285714285714552e+06
6.644285714285714552e+06
6.644285714285714552e+06
6.644285714285714552e+06
6.644285714285714552e+06
6.644285714285714552e+06
6.644285714285714552e+06
6.644285714285714552e+06
6.644285714285714552e+06
6.644285714285714552e+06
6.645714285714285448e+06
6.645714285714285448e+06
6.645714285714285448e+06
6.645714285714285448e+06
6.645714285714285448e+06
6.645714285714285448e+06
6.645714285714285448e+06
6.645714285714285448e+06
6.645714285714285448e+06
6.645714285714285448e+06
6.645714285714285448e+06
6.645714285714285448e+06
6.645714285714285448e+06
6.645714285714285448e+06
6.645714285714285448e+06
6.645714285714285448e+06
6.645714285714285448e+06
6.645714285714285448e+06
6.645714285714285448e+06
6.645714285714285448e+06
6.645714285714285448e+06
6.645714285714285448e+06
6.645714285714285448e+06
6.645714285714285448e+06
6.645714285714285448e+06
6.645714285714285448e+06
6.645714285714285448e+06
6.645714285714285448e+06
6.645714285714285448e+06
6.645714285714285448e+06
6.645714285714285448e+06
6.645714285714285448e+06
6.645714285714285448e+06
6.645714285714285448e+06
6.645714285714285448e+06
6.645714285714285448e+06
6.645714285714285448e+06
6.645714285714285448e+06
6.645714285714285448e+06
6.645714285714285448e+06
6.645714285714285448e+06
6.645714285714285448e+06
6.645714285714285448e+06
6.645714285714285448e+06
6.645714285714285448e+06
6.645714285714285448e+06
6.645714285714285448e+06
6.645714285714285448e+06
6.645714285714285448e+06
6.645714285714285448e+06
6.647142857142857276e+06
6.647142857142857276e+06
6.647142857142857276e+06
6.647142857142857276e+06
6.647142857142857276e+06
6.647142857142857276e+06
6.647142857142857276e+06
6.647142857142857276e+06
6.647142857142857276e+06
6.647142857142857276e+06
6.647142857142857276e+06
6.647142857142857276e+06
6.647142857142857276e+06
6.647142857142857276e+06
6.647142857142857276e+06
6.647142857142857276e+06
6.647142857142857276e+06
6.647142857142857276e+06
6.647142857142857276e+06
6.647142857142857276e+06
6.647142857142857276e+06
6.647142857142857276e+06
6.647142857142857276e+06
6.647142857142857276e+06
6.647142857142857276e+06
6.647142857142857276e+06
6.647142857142857276e+06
6.647142857142857276e+06
6.647142857142857276e+06
6.647142857142857276e+06
6.647142857142857276e+06
6.647142857142857276e+06
6.647142857142857276e+06
6.647142857142857276e+06
6.647142857142857276e+06
6.647142857142857276e+06
6.647142857142857276e+06
6.647142857142857276e+06
6.647142857142857276e+06
6.647142857142857276e+06
6.647142857142857276e+06
6.647142857142857276e+06
6.647142857142857276e+06
6.647142857142857276e+06
6.647142857142857276e+06
6.647142857142857276e+06
6.647142857142857276e+06
6.647142857142857276e+06
6.647142857142857276e+06
6.647142857142857276e+06
6.648571428571428172e+06
6.648571428571428172e+06
6.648571428571428172e+06
6.648571428571428172e+06
6.648571428571428172e+06
6.648571428571428172e+06
6.648571428571428172e+06
6.648571428571428172e+06
6.648571428571428172e+06
6.648571428571428172e+06
6.648571428571428172e+06
6.648571428571428172e+06
6.648571428571428172e+06
6.648571428571428172e+06
6.648571428571428172e+06
6.648571428571428172e+06
6.648571428571428172e+06
6.648571428571428172e+06
6.648571428571428172e+06
6.648571428571428172e+06
6.648571428571428172e+06
6.648571428571428172e+06
6.648571428571428172e+06
6.648571428571428172e+06
6.648571428571428172e+06
6.648571428571428172e+06
6.648571428571428172e+06
6.648571428571428172e+06
6.648571428571428172e+06
6.648571428571428172e+06
6.648571428571428172e+06
6.648571428571428172e+06
6.648571428571428172e+06
6.648571428571428172e+06
6.648571428571428172e+06
6.648571428571428172e+06
6.648571428571428172e+06
6.648571428571428172e+06
6.648571428571428172e+06
6.648571428571428172e+06
6.648571428571428172e+06
6.648571428571428172e+06
6.648571428571428172e+06
6.648571428571428172e+06
6.648571428571428172e+06
6.648571428571428172e+06
6.648571428571428172e+06
6.648571428571428172e+06
6.648571428571428172e+06
6.648571428571428172e+06
6.650000000000000000e+06
6.650000000000000000e+06
6.650000000000000000e+06
6.650000000000000000e+06
6.650000000000000000e+06
6.650000000000000000e+06
6.650000000000000000e+06
6.650000000000000000e+06
6.650000000000000000e+06
6.650000000000000000e+06
6.650000000000000000e+06
6.650000000000000000e+06
6.650000000000000000e+06
6.650000000000000000e+06
6.650000000000000000e+06
6.650000000000000000e+06
6.650000000000000000e+06
6.650000000000000000e+06
6.650000000000000000e+06
6.650000000000000000e+06
6.650000000000000000e+06
6.650000000000000000e+06
6.650000000000000000e+06
6.650000000000000000e+06
6.650000000000000000e+06
6.650000000000000000e+06
6.650000000000000000e+06
6.650000000000000000e+06
6.650000000000000000e+06
6.650000000000000000e+06
6.650000000000000000e+06
6.650000000000000000e+06
6.650000000000000000e+06
6.650000000000000000e+06
6.650000000000000000e+06
6.650000000000000000e+06
6.650000000000000000e+06
6.650000000000000000e+06
6.650000000000000000e+06
6.650000000000000000e+06
6.650000000000000000e+06
6.650000000000000000e+06
6.650000000000000000e+06
6.650000000000000000e+06
6.650000000000000000e+06
6.650000000000000000e+06
6.650000000000000000e+06
6.650000000000000000e+06
6.650000000000000000e+06
6.650000000000000000e+06
6.651428571428571828e+06
6.651428571428571828e+06
6.651428571428571828e+06
6.651428571428571828e+06
6.651428571428571828e+06
6.651428571428571828e+06
6.651428571428571828e+06
6.651428571428571828e+06
6.651428571428571828e+06
6.651428571428571828e+06
6.651428571428571828e+06
6.651428571428571828e+06
6.651428571428571828e+06
6.651428571428571828e+06
6.651428571428571828e+06
6.651428571428571828e+06
6.651428571428571828e+06
6.651428571428571828e+06
6.651428571428571828e+06
6.651428571428571828e+06
6.651428571428571828e+06
6.651428571428571828e+06
6.651428571428571828e+06
6.651428571428571828e+06
6.651428571428571828e+06
6.651428571428571828e+06
6.651428571428571828e+06
6.651428571428571828e+06
6.651428571428571828e+06
6.651428571428571828e+06
6.651428571428571828e+06
6.651428571428571828e+06
6.651428571428571828e+06
6.651428571428571828e+06
6.651428571428571828e+06
6.651428571428571828e+06
6.651428571428571828e+06
6.651428571428571828e+06
6.651428571428571828e+06
6.651428571428571828e+06
6.651428571428571828e+06
6.651428571428571828e+06
6.651428571428571828e+06
6.651428571428571828e+06
6.651428571428571828e+06
6.651428571428571828e+06
6.651428571428571828e+06
6.651428571428571828e+06
6.651428571428571828e+06
6.651428571428571828e+06
6.652857142857142724e+06
6.652857142857142724e+06
6.652857142857142724e+06
6.652857142857142724e+06
6.652857142857142724e+06
6.652857142857142724e+06
6.652857142857142724e+06
6.652857142857142724e+06
6.652857142857142724e+06
6.652857142857142724e+06
6.652857142857142724e+06
6.652857142857142724e+06
6.652857142857142724e+06
6.652857142857142724e+06
6.652857142857142724e+06
6.652857142857142724e+06
6.652857142857142724e+06
6.652857142857142724e+06
6.652857142857142724e+06
6.652857142857142724e+06
6.652857142857142724e+06
6.652857142857142724e+06
6.652857142857142724e+06
6.652857142857142724e+06
6.652857142857142724e+06
6.652857142857142724e+06
6.652857142857142724e+06
6.652857142857142724e+06
6.652857142857142724e+06
6.652857142857142724e+06
6.652857142857142724e+06
6.652857142857142724e+06
6.652857142857142724e+06
6.652857142857142724e+06
6.652857142857142724e+06
6.652857142857142724e+06
6.652857142857142724e+06
6.652857142857142724e+06
6.652857142857142724e+06
6.652857142857142724e+06
6.652857142857142724e+06
6.652857142857142724e+06
6.652857142857142724e+06
6.652857142857142724e+06
6.652857142857142724e+06
6.652857142857142724e+06
6.652857142857142724e+06
6.652857142857142724e+06
6.652857142857142724e+06
6.652857142857142724e+06
6.654285714285714552e+06
6.654285714285714552e+06
6.654285714285714552e+06
6.654285714285714552e+06
6.654285714285714552e+06
6.654285714285714552e+06
6.654285714285714552e+06
6.654285714285714552e+06
6.654285714285714552e+06
6.654285714285714552e+06
6.654285714285714552e+06
6.654285714285714552e+06
6.654285714285714552e+06
6.654285714285714552e+06
6.654285714285714552e+06
6.654285714285714552e+06
6.654285714285714552e+06
6.654285714285714552e+06
6.654285714285714552e+06
6.654285714285714552e+06
6.654285714285714552e+06
6.654285714285714552e+06
6.654285714285714552e+06
6.654285714285714552e+06
6.654285714285714552e+06
6.654285714285714552e+06
6.654285714285714552e+06
6.654285714285714552e+06
6.654285714285714552e+06
6.654285714285714552e+06
6.654285714285714552e+06
6.654285714285714552e+06
6.654285714285714552e+06
6.654285714285714552e+06
6.654285714285714552e+06
6.654285714285714552e+06
6.654285714285714552e+06
6.654285714285714552e+06
6.654285714285714552e+06
6.654285714285714552e+06
6.654285714285714552e+06
6.654285714285714552e+06
6.654285714285714552e+06
6.654285714285714552e+06
6.654285714285714552e+06
6.654285714285714552e+06
6.654285714285714552e+06
6.654285714285714552e+06
6.654285714285714552e+06
6.654285714285714552e+06
6.655714285714285448e+06
6.655714285714285448e+06
6.655714285714285448e+06
6.655714285714285448e+06
6.655714285714285448e+06
6.655714285714285448e+06
6.655714285714285448e+06
6.655714285714285448e+06
6.655714285714285448e+06
6.655714285714285448e+06
6.655714285714285448e+06
6.655714285714285448e+06
6.655714285714285448e+06
6.655714285714285448e+06
6.655714285714285448e+06
6.655714285714285448e+06
6.655714285714285448e+06
6.655714285714285448e+06
6.655714285714285448e+06
6.655714285714285448e+06
6.655714285714285448e+06
6.655714285714285448e+06
6.655714285714285448e+06
6.655714285714285448e+06
6.655714285714285448e+06
6.655714285714285448e+06
6.655714285714285448e+06
6.655714285714285448e+06
6.655714285714285448e+06
6.655714285714285448e+06
6.655714285714285448e+06
6.655714285714285448e+06
6.655714285714285448e+06
6.655714285714285448e+06
6.655714285714285448e+06
6.655714285714285448e+06
6.655714285714285448e+06
6.655714285714285448e+06
6.655714285714285448e+06
6.655714285714285448e+06
6.655714285714285448e+06
6.655714285714285448e+06
6.655714285714285448e+06
6.655714285714285448e+06
6.655714285714285448e+06
6.655714285714285448e+06
6.655714285714285448e+06
6.655714285714285448e+06
6.655714285714285448e+06
6.655714285714285448e+06
6.657142857142857276e+06
6.657142857142857276e+06
6.657142857142857276e+06
6.657142857142857276e+06
6.657142857142857276e+06
6.657142857142857276e+06
6.657142857142857276e+06
6.657142857142857276e+06
6.657142857142857276e+06
6.657142857142857276e+06
6.657142857142857276e+06
6.657142857142857276e+06
6.657142857142857276e+06
6.657142857142857276e+06
6.657142857142857276e+06
6.657142857142857276e+06
6.657142857142857276e+06
6.657142857142857276e+06
6.657142857142857276e+06
6.657142857142857276e+06
6.657142857142857276e+06
6.657142857142857276e+06
6.657142857142857276e+06
6.657142857142857276e+06
6.657142857142857276e+06
6.657142857142857276e+06
6.657142857142857276e+06
6.657142857142857276e+06
6.657142857142857276e+06
6.657142857142857276e+06
6.657142857142857276e+06
6.657142857142857276e+06
6.657142857142857276e+06
6.657142857142857276e+06
6.657142857142857276e+06
6.657142857142857276e+06
6.657142857142857276e+06
6.657142857142857276e+06
6.657142857142857276e+06
6.657142857142857276e+06
6.657142857142857276e+06
6.657142857142857276e+06
6.657142857142857276e+06
6.657142857142857276e+06
6.657142857142857276e+06
6.657142857142857276e+06
6.657142857142857276e+06
6.657142857142857276e+06
6.657142857142857276e+06
6.657142857142857276e+06
6.658571428571428172e+06
6.658571428571428172e+06
6.658571428571428172e+06
6.658571428571428172e+06
6.658571428571428172e+06
6.658571428571428172e+06
6.658571428571428172e+06
6.658571428571428172e+06
6.658571428571428172e+06
6.658571428571428172e+06
6.658571428571428172e+06
6.658571428571428172e+06
6.658571428571428172e+06
6.658571428571428172e+06
6.658571428571428172e+06
6.658571428571428172e+06
6.658571428571428172e+06
6.658571428571428172e+06
6.658571428571428172e+06
6.658571428571428172e+06
6.658571428571428172e+06
6.658571428571428172e+06
6.658571428571428172e+06
6.658571428571428172e+06
6.658571428571428172e+06
6.658571428571428172e+06
6.658571428571428172e+06
6.658571428571428172e+06
6.658571428571428172e+06
6.658571428571428172e+06
6.658571428571428172e+06
6.658571428571428172e+06
6.658571428571428172e+06
6.658571428571428172e+06
6.658571428571428172e+06
6.658571428571428172e+06
6.658571428571428172e+06
6.658571428571428172e+06
6.658571428571428172e+06
6.658571428571428172e+06
6.658571428571428172e+06
6.658571428571428172e+06
6.658571428571428172e+06
6.658571428571428172e+06
6.658571428571428172e+06
6.658571428571428172e+06
6.658571428571428172e+06
6.658571428571428172e+06
6.658571428571428172e+06
6.658571428571428172e+06
6.660000000000000000e+06
6.660000000000000000e+06
6.660000000000000000e+06
6.660000000000000000e+06
6.660000000000000000e+06
6.660000000000000000e+06
6.660000000000000000e+06
6.660000000000000000e+06
6.660000000000000000e+06
6.660000000000000000e+06
6.660000000000000000e+06
6.660000000000000000e+06
6.660000000000000000e+06
6.660000000000000000e+06
6.660000000000000000e+06
6.660000000000000000e+06
6.660000000000000000e+06
6.660000000000000000e+06
6.660000000000000000e+06
6.660000000000000000e+06
6.660000000000000000e+06
6.660000000000000000e+06
6.660000000000000000e+06
6.660000000000000000e+06
6.660000000000000000e+06
6.660000000000000000e+06
6.660000000000000000e+06
6.660000000000000000e+06
6.660000000000000000e+06
6.660000000000000000e+06
6.660000000000000000e+06
6.660000000000000000e+06
6.660000000000000000e+06
6.660000000000000000e+06
6.660000000000000000e+06
6.660000000000000000e+06
6.660000000000000000e+06
6.660000000000000000e+06
6.660000000000000000e+06
6.660000000000000000e+06
6.660000000000000000e+06
6.660000000000000000e+06
6.660000000000000000e+06
6.660000000000000000e+06
6.660000000000000000e+06
6.660000000000000000e+06
6.660000000000000000e+06
6.660000000000000000e+06
6.660000000000000000e+06
6.660000000000000000e+06
6.661428571428571828e+06
6.661428571428571828e+06
6.661428571428571828e+06
6.661428571428571828e+06
6.661428571428571828e+06
6.661428571428571828e+06
6.661428571428571828e+06
6.661428571428571828e+06
6.661428571428571828e+06
6.661428571428571828e+06
6.661428571428571828e+06
6.661428571428571828e+06
6.661428571428571828e+06
6.661428571428571828e+06
6.661428571428571828e+06
6.661428571428571828e+06
6.661428571428571828e+06
6.661428571428571828e+06
6.661428571428571828e+06
6.661428571428571828e+06
6.661428571428571828e+06
6.661428571428571828e+06
6.661428571428571828e+06
6.661428571428571828e+06
6.661428571428571828e+06
6.661428571428571828e+06
6.661428571428571828e+06
6.661428571428571828e+06
6.661428571428571828e+06
6.661428571428571828e+06
6.661428571428571828e+06
6.661428571428571828e+06
6.661428571428571828e+06
6.661428571428571828e+06
6.661428571428571828e+06
6.661428571428571828e+06
6.661428571428571828e+06
6.661428571428571828e+06
6.661428571428571828e+06
6.661428571428571828e+06
6.661428571428571828e+06
6.661428571428571828e+06
6.661428571428571828e+06
6.661428571428571828e+06
6.661428571428571828e+06
6.661428571428571828e+06
6.661428571428571828e+06
6.661428571428571828e+06
6.661428571428571828e+06
6.661428571428571828e+06
6.662857142857142724e+06
6.662857142857142724e+06
6.662857142857142724e+06
6.662857142857142724e+06
6.662857142857142724e+06
6.662857142857142724e+06
6.662857142857142724e+06
6.662857142857142724e+06
6.662857142857142724e+06
6.662857142857142724e+06
6.662857142857142724e+06
6.662857142857142724e+06
6.662857142857142724e+06
6.662857142857142724e+06
6.662857142857142724e+06
6.662857142857142724e+06
6.662857142857142724e+06
6.662857142857142724e+06
6.662857142857142724e+06
6.662857142857142724e+06
6.662857142857142724e+06
6.662857142857142724e+06
6.662857142857142724e+06
6.662857142857142724e+06
6.662857142857142724e+06
6.662857142857142724e+06
6.662857142857142724e+06
6.662857142857142724e+06
6.662857142857142724e+06
6.662857142857142724e+06
6.662857142857142724e+06
6.662857142857142724e+06
6.662857142857142724e+06
6.662857142857142724e+06
6.662857142857142724e+06
6.662857142857142724e+06
6.662857142857142724e+06
6.662857142857142724e+06
6.662857142857142724e+06
6.662857142857142724e+06
6.662857142857142724e+06
6.662857142857142724e+06
6.662857142857142724e+06
6.662857142857142724e+06
6.662857142857142724e+06
6.662857142857142724e+06
6.662857142857142724e+06
6.662857142857142724e+06
6.662857142857142724e+06
6.662857142857142724e+06
6.664285714285714552e+06
6.664285714285714552e+06
6.664285714285714552e+06
6.664285714285714552e+06
6.664285714285714552e+06
6.664285714285714552e+06
6.664285714285714552e+06
6.664285714285714552e+06
6.664285714285714552e+06
6.664285714285714552e+06
6.664285714285714552e+06
6.664285714285714552e+06
6.664285714285714552e+06
6.664285714285714552e+06
6.664285714285714552e+06
6.664285714285714552e+06
6.664285714285714552e+06
6.664285714285714552e+06
6.664285714285714552e+06
6.664285714285714552e+06
6.664285714285714552e+06
6.664285714285714552e+06
6.664285714285714552e+06
6.664285714285714552e+06
6.664285714285714552e+06
6.664285714285714552e+06
6.664285714285714552e+06
6.664285714285714552e+06
6.664285714285714552e+06
6.664285714285714552e+06
6.664285714285714552e+06
6.664285714285714552e+06
6.664285714285714552e+06
6.664285714285714552e+06
6.664285714285714552e+06
6.664285714285714552e+06
6.664285714285714552e+06
6.664285714285714552e+06
6.664285714285714552e+06
6.664285714285714552e+06
6.664285714285714552e+06
6.664285714285714552e+06
6.664285714285714552e+06
6.664285714285714552e+06
6.664285714285714552e+06
6.664285714285714552e+06
6.664285714285714552e+06
6.664285714285714552e+06
6.664285714285714552e+06
6.664285714285714552e+06
6.665714285714285448e+06
6.665714285714285448e+06
6.665714285714285448e+06
6.665714285714285448e+06
6.665714285714285448e+06
6.665714285714285448e+06
6.665714285714285448e+06
6.665714285714285448e+06
6.665714285714285448e+06
6.665714285714285448e+06
6.665714285714285448e+06
6.665714285714285448e+06
6.665714285714285448e+06
6.665714285714285448e+06
6.665714285714285448e+06
6.665714285714285448e+06
6.665714285714285448e+06
6.665714285714285448e+06
6.665714285714285448e+06
6.665714285714285448e+06
6.665714285714285448e+06
6.665714285714285448e+06
6.665714285714285448e+06
6.665714285714285448e+06
6.665714285714285448e+06
6.665714285714285448e+06
6.665714285714285448e+06
6.665714285714285448e+06
6.665714285714285448e+06
6.665714285714285448e+06
6.665714285714285448e+06
6.665714285714285448e+06
6.665714285714285448e+06
6.665714285714285448e+06
6.665714285714285448e+06
6.665714285714285448e+06
6.665714285714285448e+06
6.665714285714285448e+06
6.665714285714285448e+06
6.665714285714285448e+06
6.665714285714285448e+06
6.665714285714285448e+06
6.665714285714285448e+06
6.665714285714285448e+06
6.665714285714285448e+06
6.665714285714285448e+06
6.665714285714285448e+06
6.665714285714285448e+06
6.665714285714285448e+06
6.665714285714285448e+06
6.667142857142857276e+06
6.667142857142857276e+06
6.667142857142857276e+06
6.667142857142857276e+06
6.667142857142857276e+06
6.667142857142857276e+06
6.667142857142857276e+06
6.667142857142857276e+06
6.667142857142857276e+06
6.667142857142857276e+06
6.667142857142857276e+06
6.667142857142857276e+06
6.667142857142857276e+06
6.667142857142857276e+06
6.667142857142857276e+06
6.667142857142857276e+06
6.667142857142857276e+06
6.667142857142857276e+06
6.667142857142857276e+06
6.667142857142857276e+06
6.667142857142857276e+06
6.667142857142857276e+06
6.667142857142857276e+06
6.667142857142857276e+06
6.667142857142857276e+06
6.667142857142857276e+06
6.667142857142857276e+06
6.667142857142857276e+06
6.667142857142857276e+06
6.667142857142857276e+06
6.667142857142857276e+06
6.667142857142857276e+06
6.667142857142857276e+06
6.667142857142857276e+06
6.667142857142857276e+06
6.667142857142857276e+06
6.667142857142857276e+06
6.667142857142857276e+06
6.667142857142857276e+06
6.667142857142857276e+06
6.667142857142857276e+06
6.667142857142857276e+06
6.667142857142857276e+06
6.667142857142857276e+06
6.667142857142857276e+06
6.667142857142857276e+06
6.667142857142857276e+06
6.667142857142857276e+06
6.667142857142857276e+06
6.667142857142857276e+06
6.668571428571428172e+06
6.668571428571428172e+06
6.668571428571428172e+06
6.668571428571428172e+06
6.668571428571428172e+06
6.668571428571428172e+06
6.668571428571428172e+06
6.668571428571428172e+06
6.668571428571428172e+06
6.668571428571428172e+06
6.668571428571428172e+06
6.668571428571428172e+06
6.668571428571428172e+06
6.668571428571428172e+06
6.668571428571428172e+06
6.668571428571428172e+06
6.668571428571428172e+06
6.668571428571428172e+06
6.668571428571428172e+06
6.668571428571428172e+06
6.668571428571428172e+06
6.668571428571428172e+06
6.668571428571428172e+06
6.668571428571428172e+06
6.668571428571428172e+06
6.668571428571428172e+06
6.668571428571428172e+06
6.668571428571428172e+06
6.668571428571428172e+06
6.668571428571428172e+06
6.668571428571428172e+06
6.668571428571428172e+06
6.668571428571428172e+06
6.668571428571428172e+06
6.668571428571428172e+06
6.668571428571428172e+06
6.668571428571428172e+06
6.668571428571428172e+06
6.668571428571428172e+06
6.668571428571428172e+06
6.668571428571428172e+06
6.668571428571428172e+06
6.668571428571428172e+06
6.668571428571428172e+06
6.668571428571428172e+06
6.668571428571428172e+06
6.668571428571428172e+06
6.668571428571428172e+06
6.668571428571428172e+06
6.668571428571428172e+06
6.670000000000000000e+06
6.670000000000000000e+06
6.670000000000000000e+06
6.670000000000000000e+06
6.670000000000000000e+06
6.670000000000000000e+06
6.670000000000000000e+06
6.670000000000000000e+06
6.670000000000000000e+06
6.670000000000000000e+06
6.670000000000000000e+06
6.670000000000000000e+06
6.670000000000000000e+06
6.670000000000000000e+06
6.670000000000000000e+06
6.670000000000000000e+06
6.670000000000000000e+06
6.670000000000000000e+06
6.670000000000000000e+06
6.670000000000000000e+06
6.670000000000000000e+06
6.670000000000000000e+06
6.670000000000000000e+06
6.670000000000000000e+06
6.670000000000000000e+06
6.670000000000000000e+06
6.670000000000000000e+06
6.670000000000000000e+06
6.670000000000000000e+06
6.670000000000000000e+06
6.670000000000000000e+06
6.670000000000000000e+06
6.670000000000000000e+06
6.670000000000000000e+06
6.670000000000000000e+06
6.670000000000000000e+06
6.670000000000000000e+06
6.670000000000000000e+06
6.670000000000000000e+06
6.670000000000000000e+06
6.670000000000000000e+06
6.670000000000000000e+06
6.670000000000000000e+06
6.670000000000000000e+06
6.670000000000000000e+06
6.670000000000000000e+06
6.670000000000000000e+06
6.670000000000000000e+06
6.670000000000000000e+06
6.670000000000000000e+06
6.671428571428571828e+06
6.671428571428571828e+06
6.671428571428571828e+06
6.671428571428571828e+06
6.671428571428571828e+06
6.671428571428571828e+06
6.671428571428571828e+06
6.671428571428571828e+06
6.671428571428571828e+06
6.671428571428571828e+06
6.671428571428571828e+06
6.671428571428571828e+06
6.671428571428571828e+06
6.671428571428571828e+06
6.671428571428571828e+06
6.671428571428571828e+06
6.671428571428571828e+06
6.671428571428571828e+06
6.671428571428571828e+06
6.671428571428571828e+06
6.671428571428571828e+06
6.671428571428571828e+06
6.671428571428571828e+06
6.671428571428571828e+06
6.671428571428571828e+06
6.671428571428571828e+06
6.671428571428571828e+06
6.671428571428571828e+06
6.671428571428571828e+06
6.671428571428571828e+06
6.671428571428571828e+06
6.671428571428571828e+06
6.671428571428571828e+06
6.671428571428571828e+06
6.671428571428571828e+06
6.671428571428571828e+06
6.671428571428571828e+06
6.671428571428571828e+06
6.671428571428571828e+06
6.671428571428571828e+06
6.671428571428571828e+06
6.671428571428571828e+06
6.671428571428571828e+06
6.671428571428571828e+06
6.671428571428571828e+06
6.671428571428571828e+06
6.671428571428571828e+06
6.671428571428571828e+06
6.671428571428571828e+06
6.671428571428571828e+06
6.672857142857142724e+06
6.672857142857142724e+06
6.672857142857142724e+06
6.672857142857142724e+06
6.672857142857142724e+06
6.672857142857142724e+06
6.672857142857142724e+06
6.672857142857142724e+06
6.672857142857142724e+06
6.672857142857142724e+06
6.672857142857142724e+06
6.672857142857142724e+06
6.672857142857142724e+06
6.672857142857142724e+06
6.672857142857142724e+06
6.672857142857142724e+06
6.672857142857142724e+06
6.672857142857142724e+06
6.672857142857142724e+06
6.672857142857142724e+06
6.672857142857142724e+06
6.672857142857142724e+06
6.672857142857142724e+06
6.672857142857142724e+06
6.672857142857142724e+06
6.672857142857142724e+06
6.672857142857142724e+06
6.672857142857142724e+06
6.672857142857142724e+06
6.672857142857142724e+06
6.672857142857142724e+06
6.672857142857142724e+06
6.672857142857142724e+06
6.672857142857142724e+06
6.672857142857142724e+06
6.672857142857142724e+06
6.672857142857142724e+06
6.672857142857142724e+06
6.672857142857142724e+06
6.672857142857142724e+06
6.672857142857142724e+06
6.672857142857142724e+06
6.672857142857142724e+06
6.672857142857142724e+06
6.672857142857142724e+06
6.672857142857142724e+06
6.672857142857142724e+06
6.672857142857142724e+06
6.672857142857142724e+06
6.672857142857142724e+06
6.674285714285714552e+06
6.674285714285714552e+06
6.674285714285714552e+06
6.674285714285714552e+06
6.674285714285714552e+06
6.674285714285714552e+06
6.674285714285714552e+06
6.674285714285714552e+06
6.674285714285714552e+06
6.674285714285714552e+06
6.674285714285714552e+06
6.674285714285714552e+06
6.674285714285714552e+06
6.674285714285714552e+06
6.674285714285714552e+06
6.674285714285714552e+06
6.674285714285714552e+06
6.674285714285714552e+06
6.674285714285714552e+06
6.674285714285714552e+06
6.674285714285714552e+06
6.674285714285714552e+06
6.674285714285714552e+06
6.674285714285714552e+06
6.674285714285714552e+06
6.674285714285714552e+06
6.674285714285714552e+06
6.674285714285714552e+06
6.674285714285714552e+06
6.674285714285714552e+06
6.674285714285714552e+06
6.674285714285714552e+06
6.674285714285714552e+06
6.674285714285714552e+06
6.674285714285714552e+06
6.674285714285714552e+06
6.674285714285714552e+06
6.674285714285714552e+06
6.674285714285714552e+06
6.674285714285714552e+06
6.674285714285714552e+06
6.674285714285714552e+06
6.674285714285714552e+06
6.674285714285714552e+06
6.674285714285714552e+06
6.674285714285714552e+06
6.674285714285714552e+06
6.674285714285714552e+06
6.674285714285714552e+06
6.674285714285714552e+06
6.675714285714285448e+06
6.675714285714285448e+06
6.675714285714285448e+06
6.675714285714285448e+06
6.675714285714285448e+06
6.675714285714285448e+06
6.675714285714285448e+06
6.675714285714285448e+06
6.675714285714285448e+06
6.675714285714285448e+06
6.675714285714285448e+06
6.675714285714285448e+06
6.675714285714285448e+06
6.675714285714285448e+06
6.675714285714285448e+06
6.675714285714285448e+06
6.675714285714285448e+06
6.675714285714285448e+06
6.675714285714285448e+06
6.675714285714285448e+06
6.675714285714285448e+06
6.675714285714285448e+06
6.675714285714285448e+06
6.675714285714285448e+06
6.675714285714285448e+06
6.675714285714285448e+06
6.675714285714285448e+06
6.675714285714285448e+06
6.675714285714285448e+06
6.675714285714285448e+06
6.675714285714285448e+06
6.675714285714285448e+06
6.675714285714285448e+06
6.675714285714285448e+06
6.675714285714285448e+06
6.675714285714285448e+06
6.675714285714285448e+06
6.675714285714285448e+06
6.675714285714285448e+06
6.675714285714285448e+06
6.675714285714285448e+06
6.675714285714285448e+06
6.675714285714285448e+06
6.675714285714285448e+06
6.675714285714285448e+06
6.675714285714285448e+06
6.675714285714285448e+06
6.675714285714285448e+06
6.675714285714285448e+06
6.675714285714285448e+06
6.677142857142857276e+06
6.677142857142857276e+06
6.677142857142857276e+06
6.677142857142857276e+06
6.677142857142857276e+06
6.677142857142857276e+06
6.677142857142857276e+06
6.677142857142857276e+06
6.677142857142857276e+06
6.677142857142857276e+06
6.677142857142857276e+06
6.677142857142857276e+06
6.677142857142857276e+06
6.677142857142857276e+06
6.677142857142857276e+06
6.677142857142857276e+06
6.677142857142857276e+06
6.677142857142857276e+06
6.677142857142857276e+06
6.677142857142857276e+06
6.677142857142857276e+06
6.677142857142857276e+06
6.677142857142857276e+06
6.677142857142857276e+06
6.677142857142857276e+06
6.677142857142857276e+06
6.677142857142857276e+06
6.677142857142857276e+06
6.677142857142857276e+06
6.677142857142857276e+06
6.677142857142857276e+06
6.677142857142857276e+06
6.677142857142857276e+06
6.677142857142857276e+06
6.677142857142857276e+06
6.677142857142857276e+06
6.677142857142857276e+06
6.677142857142857276e+06
6.677142857142857276e+06
6.677142857142857276e+06
6.677142857142857276e+06
6.677142857142857276e+06
6.677142857142857276e+06
6.677142857142857276e+06
6.677142857142857276e+06
6.677142857142857276e+06
6.677142857142857276e+06
6.677142857142857276e+06
6.677142857142857276e+06
6.677142857142857276e+06
6.678571428571428172e+06
6.678571428571428172e+06
6.678571428571428172e+06
6.678571428571428172e+06
6.678571428571428172e+06
6.678571428571428172e+06
6.678571428571428172e+06
6.678571428571428172e+06
6.678571428571428172e+06
6.678571428571428172e+06
6.678571428571428172e+06
6.678571428571428172e+06
6.678571428571428172e+06
6.678571428571428172e+06
6.678571428571428172e+06
6.678571428571428172e+06
6.678571428571428172e+06
6.678571428571428172e+06
6.678571428571428172e+06
6.678571428571428172e+06
6.678571428571428172e+06
6.678571428571428172e+06
6.678571428571428172e+06
6.678571428571428172e+06
6.678571428571428172e+06
6.678571428571428172e+06
6.678571428571428172e+06
6.678571428571428172e+06
6.678571428571428172e+06
6.678571428571428172e+06
6.678571428571428172e+06
6.678571428571428172e+06
6.678571428571428172e+06
6.678571428571428172e+06
6.678571428571428172e+06
6.678571428571428172e+06
6.678571428571428172e+06
6.678571428571428172e+06
6.678571428571428172e+06
6.678571428571428172e+06
6.678571428571428172e+06
6.678571428571428172e+06
6.678571428571428172e+06
6.678571428571428172e+06
6.678571428571428172e+06
6.678571428571428172e+06
6.678571428571428172e+06
6.678571428571428172e+06
6.678571428571428172e+06
6.678571428571428172e+06
6.680000000000000000e+06
6.680000000000000000e+06
6.680000000000000000e+06
6.680000000000000000e+06
6.680000000000000000e+06
6.680000000000000000e+06
6.680000000000000000e+06
6.680000000000000000e+06
6.680000000000000000e+06
6.680000000000000000e+06
6.680000000000000000e+06
6.680000000000000000e+06
6.680000000000000000e+06
6.680000000000000000e+06
6.680000000000000000e+06
6.680000000000000000e+06
6.680000000000000000e+06
6.680000000000000000e+06
6.680000000000000000e+06
6.680000000000000000e+06
6.680000000000000000e+06
6.680000000000000000e+06
6.680000000000000000e+06
6.680000000000000000e+06
6.680000000000000000e+06
6.680000000000000000e+06
6.680000000000000000e+06
6.680000000000000000e+06
6.680000000000000000e+06
6.680000000000000000e+06
6.680000000000000000e+06
6.680000000000000000e+06
6.680000000000000000e+06
6.680000000000000000e+06
6.680000000000000000e+06
6.680000000000000000e+06
6.680000000000000000e+06
6.680000000000000000e+06
6.680000000000000000e+06
6.680000000000000000e+06
6.680000000000000000e+06
6.680000000000000000e+06
6.680000000000000000e+06
6.680000000000000000e+06
6.680000000000000000e+06
6.680000000000000000e+06
6.680000000000000000e+06
6.680000000000000000e+06
6.680000000000000000e+06
6.680000000000000000e+06
6.681428571428571828e+06
6.681428571428571828e+06
6.681428571428571828e+06
6.681428571428571828e+06
6.681428571428571828e+06
6.681428571428571828e+06
6.681428571428571828e+06
6.681428571428571828e+06
6.681428571428571828e+06
6.681428571428571828e+06
6.681428571428571828e+06
6.681428571428571828e+06
6.681428571428571828e+06
6.681428571428571828e+06
6.681428571428571828e+06
6.681428571428571828e+06
6.681428571428571828e+06
6.681428571428571828e+06
6.681428571428571828e+06
6.681428571428571828e+06
6.681428571428571828e+06
6.681428571428571828e+06
6.681428571428571828e+06
6.681428571428571828e+06
6.681428571428571828e+06
6.681428571428571828e+06
6.681428571428571828e+06
6.681428571428571828e+06
6.681428571428571828e+06
6.681428571428571828e+06
6.681428571428571828e+06
6.681428571428571828e+06
6.681428571428571828e+06
6.681428571428571828e+06
6.681428571428571828e+06
6.681428571428571828e+06
6.681428571428571828e+06
6.681428571428571828e+06
6.681428571428571828e+06
6.681428571428571828e+06
6.681428571428571828e+06
6.681428571428571828e+06
6.681428571428571828e+06
6.681428571428571828e+06
6.681428571428571828e+06
6.681428571428571828e+06
6.681428571428571828e+06
6.681428571428571828e+06
6.681428571428571828e+06
6.681428571428571828e+06
6.682857142857142724e+06
6.682857142857142724e+06
6.682857142857142724e+06
6.682857142857142724e+06
6.682857142857142724e+06
6.682857142857142724e+06
6.682857142857142724e+06
6.682857142857142724e+06
6.682857142857142724e+06
6.682857142857142724e+06
6.682857142857142724e+06
6.682857142857142724e+06
6.682857142857142724e+06
6.682857142857142724e+06
6.682857142857142724e+06
6.682857142857142724e+06
6.682857142857142724e+06
6.682857142857142724e+06
6.682857142857142724e+06
6.682857142857142724e+06
6.682857142857142724e+06
6.682857142857142724e+06
6.682857142857142724e+06
6.682857142857142724e+06
6.682857142857142724e+06
6.682857142857142724e+06
6.682857142857142724e+06
6.682857142857142724e+06
6.682857142857142724e+06
6.682857142857142724e+06
6.682857142857142724e+06
6.682857142857142724e+06
6.682857142857142724e+06
6.682857142857142724e+06
6.682857142857142724e+06
6.682857142857142724e+06
6.682857142857142724e+06
6.682857142857142724e+06
6.682857142857142724e+06
6.682857142857142724e+06
6.682857142857142724e+06
6.682857142857142724e+06
6.682857142857142724e+06
6.682857142857142724e+06
6.682857142857142724e+06
6.682857142857142724e+06
6.682857142857142724e+06
6.682857142857142724e+06
6.682857142857142724e+06
6.682857142857142724e+06
6.684285714285714552e+06
6.684285714285714552e+06
6.684285714285714552e+06
6.684285714285714552e+06
6.684285714285714552e+06
6.684285714285714552e+06
6.684285714285714552e+06
6.684285714285714552e+06
6.684285714285714552e+06
6.684285714285714552e+06
6.684285714285714552e+06
6.684285714285714552e+06
6.684285714285714552e+06
6.684285714285714552e+06
6.684285714285714552e+06
6.684285714285714552e+06
6.684285714285714552e+06
6.684285714285714552e+06
6.684285714285714552e+06
6.684285714285714552e+06
6.684285714285714552e+06
6.684285714285714552e+06
6.684285714285714552e+06
6.684285714285714552e+06
6.684285714285714552e+06
6.684285714285714552e+06
6.684285714285714552e+06
6.684285714285714552e+06
6.684285714285714552e+06
6.684285714285714552e+06
6.684285714285714552e+06
6.684285714285714552e+06
6.684285714285714552e+06
6.684285714285714552e+06
6.684285714285714552e+06
6.684285714285714552e+06
6.684285714285714552e+06
6.684285714285714552e+06
6.684285714285714552e+06
6.684285714285714552e+06
6.684285714285714552e+06
6.684285714285714552e+06
6.684285714285714552e+06
6.684285714285714552e+06
6.684285714285714552e+06
6.684285714285714552e+06
6.684285714285714552e+06
6.684285714285714552e+06
6.684285714285714552e+06
6.684285714285714552e+06
6.685714285714285448e+06
6.685714285714285448e+06
6.685714285714285448e+06
6.685714285714285448e+06
6.685714285714285448e+06
6.685714285714285448e+06
6.685714285714285448e+06
6.685714285714285448e+06
6.685714285714285448e+06
6.685714285714285448e+06
6.685714285714285448e+06
6.685714285714285448e+06
6.685714285714285448e+06
6.685714285714285448e+06
6.685714285714285448e+06
6.685714285714285448e+06
6.685714285714285448e+06
6.685714285714285448e+06
6.685714285714285448e+06
6.685714285714285448e+06
6.685714285714285448e+06
6.685714285714285448e+06
6.685714285714285448e+06
6.685714285714285448e+06
6.685714285714285448e+06
6.685714285714285448e+06
6.685714285714285448e+06
6.685714285714285448e+06
6.685714285714285448e+06
6.685714285714285448e+06
6.685714285714285448e+06
6.685714285714285448e+06
6.685714285714285448e+06
6.685714285714285448e+06
6.685714285714285448e+06
6.685714285714285448e+06
6.685714285714285448e+06
6.685714285714285448e+06
6.685714285714285448e+06
6.685714285714285448e+06
6.685714285714285448e+06
6.685714285714285448e+06
6.685714285714285448e+06
6.685714285714285448e+06
6.685714285714285448e+06
6.685714285714285448e+06
6.685714285714285448e+06
6.685714285714285448e+06
6.685714285714285448e+06
6.685714285714285448e+06
6.687142857142857276e+06
6.687142857142857276e+06
6.687142857142857276e+06
6.687142857142857276e+06
6.687142857142857276e+06
6.687142857142857276e+06
6.687142857142857276e+06
6.687142857142857276e+06
6.687142857142857276e+06
6.687142857142857276e+06
6.687142857142857276e+06
6.687142857142857276e+06
6.687142857142857276e+06
6.687142857142857276e+06
6.687142857142857276e+06
6.687142857142857276e+06
6.687142857142857276e+06
6.687142857142857276e+06
6.687142857142857276e+06
6.687142857142857276e+06
6.687142857142857276e+06
6.687142857142857276e+06
6.687142857142857276e+06
6.687142857142857276e+06
6.687142857142857276e+06
6.687142857142857276e+06
6.687142857142857276e+06
6.687142857142857276e+06
6.687142857142857276e+06
6.687142857142857276e+06
6.687142857142857276e+06
6.687142857142857276e+06
6.687142857142857276e+06
6.687142857142857276e+06
6.687142857142857276e+06
6.687142857142857276e+06
6.687142857142857276e+06
6.687142857142857276e+06
6.687142857142857276e+06
6.687142857142857276e+06
6.687142857142857276e+06
6.687142857142857276e+06
6.687142857142857276e+06
6.687142857142857276e+06
6.687142857142857276e+06
6.687142857142857276e+06
6.687142857142857276e+06
6.687142857142857276e+06
6.687142857142857276e+06
6.687142857142857276e+06
6.688571428571428172e+06
6.688571428571428172e+06
6.688571428571428172e+06
6.688571428571428172e+06
6.688571428571428172e+06
6.688571428571428172e+06
6.688571428571428172e+06
6.688571428571428172e+06
6.688571428571428172e+06
6.688571428571428172e+06
6.688571428571428172e+06
6.688571428571428172e+06
6.688571428571428172e+06
6.688571428571428172e+06
6.688571428571428172e+06
6.688571428571428172e+06
6.688571428571428172e+06
6.688571428571428172e+06
6.688571428571428172e+06
6.688571428571428172e+06
6.688571428571428172e+06
6.688571428571428172e+06
6.688571428571428172e+06
6.688571428571428172e+06
6.688571428571428172e+06
6.688571428571428172e+06
6.688571428571428172e+06
6.688571428571428172e+06
6.688571428571428172e+06
6.688571428571428172e+06
6.688571428571428172e+06
6.688571428571428172e+06
6.688571428571428172e+06
6.688571428571428172e+06
6.688571428571428172e+06
6.688571428571428172e+06
6.688571428571428172e+06
6.688571428571428172e+06
6.688571428571428172e+06
6.688571428571428172e+06
6.688571428571428172e+06
6.688571428571428172e+06
6.688571428571428172e+06
6.688571428571428172e+06
6.688571428571428172e+06
6.688571428571428172e+06
6.688571428571428172e+06
6.688571428571428172e+06
6.688571428571428172e+06
6.688571428571428172e+06
6.690000000000000000e+06
6.690000000000000000e+06
6.690000000000000000e+06
6.690000000000000000e+06
6.690000000000000000e+06
6.690000000000000000e+06
6.690000000000000000e+06
6.690000000000000000e+06
6.690000000000000000e+06
6.690000000000000000e+06
6.690000000000000000e+06
6.690000000000000000e+06
6.690000000000000000e+06
6.690000000000000000e+06
6.690000000000000000e+06
6.690000000000000000e+06
6.690000000000000000e+06
6.690000000000000000e+06
6.690000000000000000e+06
6.690000000000000000e+06
6.690000000000000000e+06
6.690000000000000000e+06
6.690000000000000000e+06
6.690000000000000000e+06
6.690000000000000000e+06
6.690000000000000000e+06
6.690000000000000000e+06
6.690000000000000000e+06
6.690000000000000000e+06
6.690000000000000000e+06
6.690000000000000000e+06
6.690000000000000000e+06
6.690000000000000000e+06
6.690000000000000000e+06
6.690000000000000000e+06
6.690000000000000000e+06
6.690000000000000000e+06
6.690000000000000000e+06
6.690000000000000000e+06
6.690000000000000000e+06
6.690000000000000000e+06
6.690000000000000000e+06
6.690000000000000000e+06
6.690000000000000000e+06
6.690000000000000000e+06
6.690000000000000000e+06
6.690000000000000000e+06
6.690000000000000000e+06
6.690000000000000000e+06
6.690000000000000000e+06
6.691428571428571828e+06
6.691428571428571828e+06
6.691428571428571828e+06
6.691428571428571828e+06
6.691428571428571828e+06
6.691428571428571828e+06
6.691428571428571828e+06
6.691428571428571828e+06
6.691428571428571828e+06
6.691428571428571828e+06
6.691428571428571828e+06
6.691428571428571828e+06
6.691428571428571828e+06
6.691428571428571828e+06
6.691428571428571828e+06
6.691428571428571828e+06
6.691428571428571828e+06
6.691428571428571828e+06
6.691428571428571828e+06
6.691428571428571828e+06
6.691428571428571828e+06
6.691428571428571828e+06
6.691428571428571828e+06
6.691428571428571828e+06
6.691428571428571828e+06
6.691428571428571828e+06
6.691428571428571828e+06
6.691428571428571828e+06
6.691428571428571828e+06
6.691428571428571828e+06
6.691428571428571828e+06
6.691428571428571828e+06
6.691428571428571828e+06
6.691428571428571828e+06
6.691428571428571828e+06
6.691428571428571828e+06
6.691428571428571828e+06
6.691428571428571828e+06
6.691428571428571828e+06
6.691428571428571828e+06
6.691428571428571828e+06
6.691428571428571828e+06
6.691428571428571828e+06
6.691428571428571828e+06
6.691428571428571828e+06
6.691428571428571828e+06
6.691428571428571828e+06
6.691428571428571828e+06
6.691428571428571828e+06
6.691428571428571828e+06
6.692857142857142724e+06
6.692857142857142724e+06
6.692857142857142724e+06
6.692857142857142724e+06
6.692857142857142724e+06
6.692857142857142724e+06
6.692857142857142724e+06
6.692857142857142724e+06
6.692857142857142724e+06
6.692857142857142724e+06
6.692857142857142724e+06
6.692857142857142724e+06
6.692857142857142724e+06
6.692857142857142724e+06
6.692857142857142724e+06
6.692857142857142724e+06
6.692857142857142724e+06
6.692857142857142724e+06
6.692857142857142724e+06
6.692857142857142724e+06
6.692857142857142724e+06
6.692857142857142724e+06
6.692857142857142724e+06
6.692857142857142724e+06
6.692857142857142724e+06
6.692857142857142724e+06
6.692857142857142724e+06
6.692857142857142724e+06
6.692857142857142724e+06
6.692857142857142724e+06
6.692857142857142724e+06
6.692857142857142724e+06
6.692857142857142724e+06
6.692857142857142724e+06
6.692857142857142724e+06
6.692857142857142724e+06
6.692857142857142724e+06
6.692857142857142724e+06
6.692857142857142724e+06
6.692857142857142724e+06
6.692857142857142724e+06
6.692857142857142724e+06
6.692857142857142724e+06
6.692857142857142724e+06
6.692857142857142724e+06
6.692857142857142724e+06
6.692857142857142724e+06
6.692857142857142724e+06
6.692857142857142724e+06
6.692857142857142724e+06
6.694285714285714552e+06
6.694285714285714552e+06
6.694285714285714552e+06
6.694285714285714552e+06
6.694285714285714552e+06
6.694285714285714552e+06
6.694285714285714552e+06
6.694285714285714552e+06
6.694285714285714552e+06
6.694285714285714552e+06
6.694285714285714552e+06
6.694285714285714552e+06
6.694285714285714552e+06
6.694285714285714552e+06
6.694285714285714552e+06
6.694285714285714552e+06
6.694285714285714552e+06
6.694285714285714552e+06
6.694285714285714552e+06
6.694285714285714552e+06
6.694285714285714552e+06
6.694285714285714552e+06
6.694285714285714552e+06
6.694285714285714552e+06
6.694285714285714552e+06
6.694285714285714552e+06
6.694285714285714552e+06
6.694285714285714552e+06
6.694285714285714552e+06
6.694285714285714552e+06
6.694285714285714552e+06
6.694285714285714552e+06
6.694285714285714552e+06
6.694285714285714552e+06
6.694285714285714552e+06
6.694285714285714552e+06
6.694285714285714552e+06
6.694285714285714552e+06
6.694285714285714552e+06
6.694285714285714552e+06
6.694285714285714552e+06
6.694285714285714552e+06
6.694285714285714552e+06
6.694285714285714552e+06
6.694285714285714552e+06
6.694285714285714552e+06
6.694285714285714552e+06
6.694285714285714552e+06
6.694285714285714552e+06
6.694285714285714552e+06
6.695714285714285448e+06
6.695714285714285448e+06
6.695714285714285448e+06
6.695714285714285448e+06
6.695714285714285448e+06
6.695714285714285448e+06
6.695714285714285448e+06
6.695714285714285448e+06
6.695714285714285448e+06
6.695714285714285448e+06
6.695714285714285448e+06
6.695714285714285448e+06
6.695714285714285448e+06
6.695714285714285448e+06
6.695714285714285448e+06
6.695714285714285448e+06
6.695714285714285448e+06
6.695714285714285448e+06
6.695714285714285448e+06
6.695714285714285448e+06
6.695714285714285448e+06
6.695714285714285448e+06
6.695714285714285448e+06
6.695714285714285448e+06
6.695714285714285448e+06
6.695714285714285448e+06
6.695714285714285448e+06
6.695714285714285448e+06
6.695714285714285448e+06
6.695714285714285448e+06
6.695714285714285448e+06
6.695714285714285448e+06
6.695714285714285448e+06
6.695714285714285448e+06
6.695714285714285448e+06
6.695714285714285448e+06
6.695714285714285448e+06
6.695714285714285448e+06
6.695714285714285448e+06
6.695714285714285448e+06
6.695714285714285448e+06
6.695714285714285448e+06
6.695714285714285448e+06
6.695714285714285448e+06
6.695714285714285448e+06
6.695714285714285448e+06
6.695714285714285448e+06
6.695714285714285448e+06
6.695714285714285448e+06
6.695714285714285448e+06
6.697142857142857276e+06
6.697142857142857276e+06
6.697142857142857276e+06
6.697142857142857276e+06
6.697142857142857276e+06
6.697142857142857276e+06
6.697142857142857276e+06
6.697142857142857276e+06
6.697142857142857276e+06
6.697142857142857276e+06
6.697142857142857276e+06
6.697142857142857276e+06
6.697142857142857276e+06
6.697142857142857276e+06
6.697142857142857276e+06
6.697142857142857276e+06
6.697142857142857276e+06
6.697142857142857276e+06
6.697142857142857276e+06
6.697142857142857276e+06
6.697142857142857276e+06
6.697142857142857276e+06
6.697142857142857276e+06
6.697142857142857276e+06
6.697142857142857276e+06
6.697142857142857276e+06
6.697142857142857276e+06
6.697142857142857276e+06
6.697142857142857276e+06
6.697142857142857276e+06
6.697142857142857276e+06
6.697142857142857276e+06
6.697142857142857276e+06
6.697142857142857276e+06
6.697142857142857276e+06
6.697142857142857276e+06
6.697142857142857276e+06
6.697142857142857276e+06
6.697142857142857276e+06
6.697142857142857276e+06
6.697142857142857276e+06
6.697142857142857276e+06
6.697142857142857276e+06
6.697142857142857276e+06
6.697142857142857276e+06
6.697142857142857276e+06
6.697142857142857276e+06
6.697142857142857276e+06
6.697142857142857276e+06
6.697142857142857276e+06
6.698571428571428172e+06
6.698571428571428172e+06
6.698571428571428172e+06
6.698571428571428172e+06
6.698571428571428172e+06
6.698571428571428172e+06
6.698571428571428172e+06
6.698571428571428172e+06
6.698571428571428172e+06
6.698571428571428172e+06
6.698571428571428172e+06
6.698571428571428172e+06
6.698571428571428172e+06
6.698571428571428172e+06
6.698571428571428172e+06
6.698571428571428172e+06
6.698571428571428172e+06
6.698571428571428172e+06
6.698571428571428172e+06
6.698571428571428172e+06
6.698571428571428172e+06
6.698571428571428172e+06
6.698571428571428172e+06
6.698571428571428172e+06
6.698571428571428172e+06
6.698571428571428172e+06
6.698571428571428172e+06
6.698571428571428172e+06
6.698571428571428172e+06
6.698571428571428172e+06
6.698571428571428172e+06
6.698571428571428172e+06
6.698571428571428172e+06
6.698571428571428172e+06
6.698571428571428172e+06
6.698571428571428172e+06
6.698571428571428172e+06
6.698571428571428172e+06
6.698571428571428172e+06
6.698571428571428172e+06
6.698571428571428172e+06
6.698571428571428172e+06
6.698571428571428172e+06
6.698571428571428172e+06
6.698571428571428172e+06
6.698571428571428172e+06
6.698571428571428172e+06
6.698571428571428172e+06
6.698571428571428172e+06
6.698571428571428172e+06
6.700000000000000000e+06
6.700000000000000000e+06
6.700000000000000000e+06
6.700000000000000000e+06
6.700000000000000000e+06
6.700000000000000000e+06
6.700000000000000000e+06
6.700000000000000000e+06
6.700000000000000000e+06
6.700000000000000000e+06
6.700000000000000000e+06
6.700000000000000000e+06
6.700000000000000000e+06
6.700000000000000000e+06
6.700000000000000000e+06
6.700000000000000000e+06
6.700000000000000000e+06
6.700000000000000000e+06
6.700000000000000000e+06
6.700000000000000000e+06
6.700000000000000000e+06
6.700000000000000000e+06
6.700000000000000000e+06
6.700000000000000000e+06
6.700000000000000000e+06
6.700000000000000000e+06
6.700000000000000000e+06
6.700000000000000000e+06
6.700000000000000000e+06
6.700000000000000000e+06
6.700000000000000000e+06
6.700000000000000000e+06
6.700000000000000000e+06
6.700000000000000000e+06
6.700000000000000000e+06
6.700000000000000000e+06
6.700000000000000000e+06
6.700000000000000000e+06
6.700000000000000000e+06
6.700000000000000000e+06
6.700000000000000000e+06
6.700000000000000000e+06
6.700000000000000000e+06
6.700000000000000000e+06
6.700000000000000000e+06
6.700000000000000000e+06
6.700000000000000000e+06
6.700000000000000000e+06
6.700000000000000000e+06
6.700000000000000000e+06
6.701428571428571828e+06
6.701428571428571828e+06
6.701428571428571828e+06
6.701428571428571828e+06
6.701428571428571828e+06
6.701428571428571828e+06
6.701428571428571828e+06
6.701428571428571828e+06
6.701428571428571828e+06
6.701428571428571828e+06
6.701428571428571828e+06
6.701428571428571828e+06
6.701428571428571828e+06
6.701428571428571828e+06
6.701428571428571828e+06
6.701428571428571828e+06
6.701428571428571828e+06
6.701428571428571828e+06
6.701428571428571828e+06
6.701428571428571828e+06
6.701428571428571828e+06
6.701428571428571828e+06
6.701428571428571828e+06
6.701428571428571828e+06
6.701428571428571828e+06
6.701428571428571828e+06
6.701428571428571828e+06
6.701428571428571828e+06
6.701428571428571828e+06
6.701428571428571828e+06
6.701428571428571828e+06
6.701428571428571828e+06
6.701428571428571828e+06
6.701428571428571828e+06
6.701428571428571828e+06
6.701428571428571828e+06
6.701428571428571828e+06
6.701428571428571828e+06
6.701428571428571828e+06
6.701428571428571828e+06
6.701428571428571828e+06
6.701428571428571828e+06
6.701428571428571828e+06
6.701428571428571828e+06
6.701428571428571828e+06
6.701428571428571828e+06
6.701428571428571828e+06
6.701428571428571828e+06
6.701428571428571828e+06
6.701428571428571828e+06
6.702857142857142724e+06
6.702857142857142724e+06
6.702857142857142724e+06
6.702857142857142724e+06
6.702857142857142724e+06
6.702857142857142724e+06
6.702857142857142724e+06
6.702857142857142724e+06
6.702857142857142724e+06
6.702857142857142724e+06
6.702857142857142724e+06
6.702857142857142724e+06
6.702857142857142724e+06
6.702857142857142724e+06
6.702857142857142724e+06
6.702857142857142724e+06
6.702857142857142724e+06
6.702857142857142724e+06
6.702857142857142724e+06
6.702857142857142724e+06
6.702857142857142724e+06
6.702857142857142724e+06
6.702857142857142724e+06
6.702857142857142724e+06
6.702857142857142724e+06
6.702857142857142724e+06
6.702857142857142724e+06
6.702857142857142724e+06
6.702857142857142724e+06
6.702857142857142724e+06
6.702857142857142724e+06
6.702857142857142724e+06
6.702857142857142724e+06
6.702857142857142724e+06
6.702857142857142724e+06
6.702857142857142724e+06
6.702857142857142724e+06
6.702857142857142724e+06
6.702857142857142724e+06
6.702857142857142724e+06
6.702857142857142724e+06
6.702857142857142724e+06
6.702857142857142724e+06
6.702857142857142724e+06
6.702857142857142724e+06
6.702857142857142724e+06
6.702857142857142724e+06
6.702857142857142724e+06
6.702857142857142724e+06
6.702857142857142724e+06
6.704285714285714552e+06
6.704285714285714552e+06
6.704285714285714552e+06
6.704285714285714552e+06
6.704285714285714552e+06
6.704285714285714552e+06
6.704285714285714552e+06
6.704285714285714552e+06
6.704285714285714552e+06
6.704285714285714552e+06
6.704285714285714552e+06
6.704285714285714552e+06
6.704285714285714552e+06
6.704285714285714552e+06
6.704285714285714552e+06
6.704285714285714552e+06
6.704285714285714552e+06
6.704285714285714552e+06
6.704285714285714552e+06
6.704285714285714552e+06
6.704285714285714552e+06
6.704285714285714552e+06
6.704285714285714552e+06
6.704285714285714552e+06
6.704285714285714552e+06
6.704285714285714552e+06
6.704285714285714552e+06
6.704285714285714552e+06
6.704285714285714552e+06
6.704285714285714552e+06
6.704285714285714552e+06
6.704285714285714552e+06
6.704285714285714552e+06
6.704285714285714552e+06
6.704285714285714552e+06
6.704285714285714552e+06
6.704285714285714552e+06
6.704285714285714552e+06
6.704285714285714552e+06
6.704285714285714552e+06
6.704285714285714552e+06
6.704285714285714552e+06
6.704285714285714552e+06
6.704285714285714552e+06
6.704285714285714552e+06
6.704285714285714552e+06
6.704285714285714552e+06
6.704285714285714552e+06
6.704285714285714552e+06
6.704285714285714552e+06
